Airframe: Cessna_CitationX
Kp: 0.25
Ki: 0.05
Kd: 0.1
tau: 0.008
limMin: 0.15
limMax: 0.9
intLimMin: 0.05
intLimMax: 0.7
holdSpeed: 240
T: 0.05
setpoint: 240
t;error;speed;out;setpoint;Int;Diff
0.162598;37.0506;202.949;0.15;240;0.248968;-164.767
0.274475;37.2397;202.76;0.15;240;0.456754;-50.3184
0.384521;37.4226;202.577;0.15;240;0.662163;-14.7548
0.494812;37.603;202.397;0.9;240;0.7;-4.07349
0.601379;37.7748;202.225;0.9;240;0.7;-0.798545
0.709961;37.9478;202.052;0.9;240;0.7;0.139484
0.816345;38.1151;201.885;0.9;240;0.7;0.412074
0.922729;38.2807;201.719;0.9;240;0.7;0.487037
1.03076;38.4474;201.553;0.9;240;0.7;0.513083
1.13959;38.6138;201.386;0.9;240;0.7;0.516953
1.24585;38.7748;201.225;0.9;240;0.7;0.506614
1.35168;38.934;201.066;0.9;240;0.7;0.49995
1.46442;39.1021;200.898;0.9;240;0.7;0.517154
1.57471;39.2649;200.735;0.9;240;0.7;0.507724
1.68542;39.4266;200.573;0.9;240;0.7;0.506813
1.79486;39.5845;200.416;0.9;240;0.7;0.496301
1.90393;39.7399;200.26;0.9;240;0.7;0.489622
2.0188;39.9012;200.099;0.9;240;0.7;0.490033
2.12769;40.0514;199.949;0.9;240;0.7;0.475034
2.23596;40.1982;199.802;0.9;240;0.7;0.46327
2.34216;40.3391;199.661;0.9;240;0.7;0.445963
2.44843;40.477;199.523;0.9;240;0.7;0.434167
2.55518;40.612;199.388;0.9;240;0.7;0.42475
2.66449;40.7464;199.254;0.9;240;0.7;0.420636
2.77899;40.8825;199.117;0.9;240;0.7;0.422502
2.8891;41.0085;198.992;0.9;240;0.7;0.399447
3.00189;41.132;198.868;0.9;240;0.7;0.390803
3.11499;41.25;198.75;0.9;240;0.7;0.374146
3.22833;41.3617;198.638;0.9;240;0.7;0.356722
3.3446;41.4691;198.531;0.9;240;0.7;0.34146
3.45752;41.5659;198.434;0.9;240;0.7;0.313991
3.57166;41.6557;198.344;0.9;240;0.7;0.291121
3.68488;41.7362;198.264;0.9;240;0.7;0.262701
3.80316;41.8108;198.189;0.9;240;0.7;0.239013
3.91461;41.8715;198.128;0.9;240;0.7;0.202292
4.03015;41.9242;198.076;0.9;240;0.7;0.172031
4.15613;41.9689;198.031;0.9;240;0.7;0.146974
4.27753;41.9989;198.001;0.9;240;0.7;0.110085
4.39532;42.0153;197.985;0.9;240;0.7;0.0685901
4.51044;42.0184;197.982;0.9;240;0.7;0.0264174
4.62933;42.0078;197.992;0.9;240;0.7;-0.0155181
4.74615;41.9833;198.017;0.9;240;0.7;-0.0587442
4.86371;41.9442;198.056;0.9;240;0.7;-0.103707
4.98309;41.8895;198.11;0.9;240;0.7;-0.150391
5.09521;41.8244;198.176;0.9;240;0.7;-0.190634
5.21442;41.7407;198.259;0.9;240;0.7;-0.239102
5.3255;41.6497;198.35;0.9;240;0.7;-0.272641
5.43927;41.5435;198.456;0.9;240;0.7;-0.316168
5.55646;41.4212;198.579;0.9;240;0.7;-0.362878
5.67346;41.2865;198.714;0.9;240;0.7;-0.403384
5.79468;41.1341;198.866;0.9;240;0.7;-0.453222
5.91876;40.9656;199.034;0.9;240;0.7;-0.504117
6.0351;40.7966;199.203;0.9;240;0.7;-0.527924
6.16565;40.5954;199.405;0.9;240;0.7;-0.593642
6.27972;40.4104;199.59;0.9;240;0.7;-0.591406
6.41144;40.1866;199.813;0.9;240;0.7;-0.660783
6.52936;39.9779;200.022;0.9;240;0.7;-0.663787
6.63348;39.7876;200.212;0.9;240;0.7;-0.617246
6.73682;39.5938;200.406;0.9;240;0.7;-0.609773
6.85083;39.3742;200.626;0.9;240;0.7;-0.655919
6.96185;39.1557;200.844;0.9;240;0.7;-0.677487
7.06964;38.9393;201.061;0.9;240;0.7;-0.672675
7.17914;38.7157;201.284;0.9;240;0.7;-0.692082
7.28967;38.4864;201.514;0.9;240;0.7;-0.714933
7.39972;38.255;201.745;0.9;240;0.7;-0.72496
7.5127;38.0146;201.985;0.9;240;0.7;-0.741134
7.62378;37.7755;202.224;0.9;240;0.7;-0.744899
7.73724;37.5292;202.471;0.9;240;0.7;-0.761088
7.85114;37.2799;202.72;0.9;240;0.7;-0.775847
7.96948;37.0188;202.981;0.9;240;0.7;-0.809443
8.07947;36.7751;203.225;0.9;240;0.7;-0.765157
8.18665;36.5367;203.463;0.9;240;0.7;-0.745826
8.29395;36.2969;203.703;0.9;240;0.7;-0.74839
8.40015;36.0587;203.941;0.9;240;0.7;-0.745342
8.50684;35.8189;204.181;0.9;240;0.7;-0.746924
8.61523;35.5748;204.425;0.9;240;0.7;-0.754884
8.72168;35.3346;204.665;0.9;240;0.7;-0.752439
8.82843;35.0934;204.907;0.9;240;0.7;-0.751844
8.93726;34.8475;205.152;0.9;240;0.7;-0.763483
9.0448;34.6043;205.396;0.9;240;0.7;-0.763813
9.15204;34.3618;205.638;0.9;240;0.7;-0.762985
9.25916;34.1199;205.88;0.9;240;0.7;-0.759953
9.36646;33.8776;206.122;0.9;240;0.7;-0.759884
9.47168;33.6402;206.36;0.9;240;0.7;-0.745037
9.57812;33.4006;206.599;0.9;240;0.7;-0.748504
9.68445;33.1612;206.839;0.9;240;0.7;-0.751355
9.78894;32.9267;207.073;0.9;240;0.7;-0.736837
9.89526;32.6884;207.312;0.9;240;0.7;-0.744169
10.0104;32.4306;207.569;0.9;240;0.7;-0.788294
10.1204;32.1849;207.815;0.9;240;0.7;-0.770236
10.2276;31.9461;208.054;0.9;240;0.7;-0.750708
10.3359;31.7053;208.295;0.9;240;0.7;-0.754134
10.4421;31.4699;208.53;0.9;240;0.7;-0.738817
10.5486;31.2341;208.766;0.9;240;0.7;-0.73639
10.6536;31.0023;208.998;0.9;240;0.7;-0.72571
10.7622;30.7631;209.237;0.9;240;0.7;-0.738515
10.8713;30.5233;209.477;0.9;240;0.7;-0.740937
10.983;30.2786;209.721;0.9;240;0.7;-0.754526
11.0985;30.0258;209.974;0.9;240;0.7;-0.782488
11.2128;29.7768;210.223;0.9;240;0.7;-0.772878
11.3215;29.5403;210.46;0.9;240;0.7;-0.745136
11.427;29.3115;210.689;0.9;240;0.7;-0.720591
11.5358;29.076;210.924;0.9;240;0.7;-0.732614
11.6467;28.8367;211.163;0.9;240;0.7;-0.741925
11.7594;28.594;211.406;0.9;240;0.7;-0.753876
11.8705;28.3552;211.645;0.9;240;0.7;-0.743846
11.9813;28.1179;211.882;0.9;240;0.7;-0.740791
12.1355;27.7859;212.214;0.9;240;0.7;-0.888886
12.2839;27.4696;212.53;0.9;240;0.7;-0.945967
12.4057;27.2112;212.789;0.9;240;0.7;-0.833619
12.5188;26.9718;213.028;0.9;240;0.7;-0.774533
12.6388;26.7181;213.282;0.9;240;0.7;-0.783547
12.748;26.4881;213.512;0.9;240;0.7;-0.737883
12.8586;26.2551;213.745;0.9;240;0.7;-0.729069
12.9674;26.0266;213.973;0.9;240;0.7;-0.717287
13.076;25.7988;214.201;0.9;240;0.7;-0.714866
13.182;25.5768;214.423;0.9;240;0.7;-0.698574
13.2896;25.3519;214.648;0.9;240;0.7;-0.702949
13.3976;25.126;214.874;0.9;240;0.7;-0.707076
13.5063;24.8991;215.101;0.9;240;0.7;-0.711832
13.6222;24.6575;215.342;0.9;240;0.7;-0.742521
13.7333;24.4263;215.574;0.9;240;0.7;-0.72489
13.8427;24.1991;215.801;0.9;240;0.7;-0.713749
13.9492;23.9778;216.022;0.9;240;0.7;-0.701384
14.0586;23.7508;216.249;0.9;240;0.7;-0.712076
14.1647;23.5312;216.469;0.9;240;0.7;-0.693709
14.2946;23.2624;216.738;0.9;240;0.7;-0.782766
14.4137;23.0162;216.984;0.9;240;0.7;-0.771276
14.5308;22.7746;217.225;0.9;240;0.7;-0.75173
14.6401;22.5492;217.451;0.9;240;0.7;-0.720893
14.748;22.3268;217.673;0.9;240;0.7;-0.701495
14.8587;22.0987;217.901;0.9;240;0.7;-0.706034
14.9682;21.8731;218.127;0.9;240;0.7;-0.707371
15.0737;21.6558;218.344;0.9;240;0.7;-0.685956
15.1807;21.4355;218.565;0.9;240;0.7;-0.687579
15.2883;21.2139;218.786;0.9;240;0.7;-0.690714
15.3906;21.0036;218.996;0.9;240;0.7;-0.665316
15.4997;20.7791;219.221;0.9;240;0.7;-0.69144
15.605;20.5624;219.438;0.9;240;0.7;-0.679984
15.7092;20.348;219.652;0.9;240;0.7;-0.669847
15.8157;20.129;219.871;0.9;240;0.7;-0.680022
15.9223;19.9097;220.09;0.9;240;0.7;-0.680736
16.0295;19.6889;220.311;0.9;240;0.7;-0.683962
16.1435;19.4543;220.546;0.9;240;0.7;-0.702706
16.2495;19.2361;220.764;0.9;240;0.7;-0.689996
16.3558;19.0175;220.982;0.9;240;0.7;-0.685245
16.4641;18.7948;221.205;0.9;240;0.7;-0.695057
16.5719;18.5728;221.427;0.9;240;0.7;-0.693396
16.6822;18.3457;221.654;0.9;240;0.7;-0.704462
16.7906;18.1225;221.878;0.9;240;0.7;-0.701446
16.8987;17.9;222.1;0.9;240;0.7;-0.69542
17.0073;17.6761;222.324;0.9;240;0.7;-0.697647
17.118;17.4478;222.552;0.9;240;0.7;-0.710227
17.2325;17.2117;222.788;0.9;240;0.7;-0.730964
17.3522;16.9646;223.035;0.9;240;0.7;-0.759644
17.4636;16.7347;223.265;0.9;240;0.7;-0.729205
17.5751;16.5046;223.495;0.9;240;0.7;-0.72133
17.6863;16.2752;223.725;0.9;240;0.7;-0.719442
17.8016;16.0368;223.963;0.9;240;0.7;-0.736487
17.9207;15.7907;224.209;0.9;240;0.7;-0.75706
18.0377;15.5489;224.451;0.9;240;0.7;-0.754614
18.1549;15.3064;224.694;0.9;240;0.7;-0.755878
18.2694;15.0694;224.931;0.9;240;0.7;-0.744149
18.3831;14.8341;225.166;0.9;240;0.7;-0.741288
18.4958;14.6007;225.399;0.9;240;0.7;-0.733538
18.609;14.3662;225.634;0.9;240;0.7;-0.731018
18.7224;14.1312;225.869;0.9;240;0.7;-0.734783
18.8359;13.8958;226.104;0.9;240;0.7;-0.736124
18.9485;13.6622;226.338;0.9;240;0.7;-0.730746
19.0599;13.4308;226.569;0.9;240;0.7;-0.723436
19.1734;13.1953;226.805;0.9;240;0.7;-0.729217
19.2866;12.9601;227.04;0.9;240;0.7;-0.733937
19.401;12.7225;227.277;0.9;240;0.7;-0.733424
19.5128;12.4902;227.51;0.9;240;0.7;-0.727795
19.625;12.2569;227.743;0.9;240;0.7;-0.728633
19.7355;12.0271;227.973;0.9;240;0.7;-0.721232
19.8503;11.7881;228.212;0.9;240;0.7;-0.740673
19.9703;11.5382;228.462;0.9;240;0.7;-0.767307
20.0847;11.3;228.7;0.9;240;0.7;-0.745852
20.2025;11.0547;228.945;0.9;240;0.7;-0.753784
20.3123;10.826;229.174;0.9;240;0.7;-0.727209
20.4247;10.592;229.408;0.9;240;0.7;-0.73061
20.5359;10.3603;229.64;0.9;240;0.7;-0.724423
20.6462;10.1306;229.869;0.9;240;0.7;-0.719437
20.7581;9.89735;230.103;0.9;240;0.7;-0.726297
20.8687;9.66685;230.333;0.9;240;0.7;-0.723822
20.9771;9.44107;230.559;0.9;240;0.7;-0.711667
21.0858;9.21436;230.786;0.9;240;0.7;-0.707644
21.1954;8.9857;231.014;0.9;240;0.7;-0.712535
21.3112;8.74411;231.256;0.9;240;0.7;-0.743132
21.4283;8.49966;231.5;0.9;240;0.7;-0.758064
21.5492;8.24759;231.752;0.9;240;0.7;-0.772429
21.6638;8.00841;231.992;0.9;240;0.7;-0.753182
21.78;7.76617;232.234;0.9;240;0.7;-0.756766
21.8983;7.51961;232.48;0.9;240;0.7;-0.764416
22.0131;7.28035;232.72;0.9;240;0.7;-0.755568
22.1249;7.04718;232.953;0.9;240;0.7;-0.731299
22.2411;6.80518;233.195;0.9;240;0.7;-0.73704
22.3495;6.57932;233.421;0.9;240;0.7;-0.715748
22.4583;6.35274;233.647;0.9;240;0.7;-0.707973
22.5688;6.12248;233.878;0.9;240;0.7;-0.714728
22.6799;5.89153;234.108;0.9;240;0.7;-0.719504
22.7938;5.65428;234.346;0.9;240;0.7;-0.734923
22.9051;5.42299;234.577;0.9;240;0.7;-0.725807
23.019;5.1859;234.814;0.9;240;0.7;-0.735628
23.1302;4.95477;235.045;0.9;240;0.7;-0.728115
23.2405;4.72563;235.274;0.9;240;0.7;-0.717641
23.3506;4.49667;235.503;0.9;240;0.7;-0.715324
23.4617;4.26625;235.734;0.9;240;0.7;-0.720293
23.5715;4.03821;235.962;0.9;240;0.7;-0.714401
23.6862;3.80031;236.2;0.9;240;0.7;-0.735863
23.8017;3.56081;236.439;0.85031;240;0.7;-0.739892
23.9177;3.32033;236.68;0.783609;240;0.7;-0.746473
24.0312;3.08511;236.915;0.730684;240;0.7;-0.740595
24.1465;2.84683;237.153;0.666295;240;0.7;-0.745413
24.2629;2.60672;237.393;0.614411;240;0.7;-0.737269
24.3768;2.3739;237.626;0.564164;240;0.7;-0.729312
24.4902;2.14412;237.856;0.511174;240;0.7;-0.724856
24.6012;1.9225;238.077;0.478027;240;0.7;-0.702598
24.7122;1.70488;238.295;0.440279;240;0.7;-0.685941
24.8226;1.49323;238.507;0.406827;240;0.7;-0.666479
24.9346;1.28468;238.715;0.365807;240;0.7;-0.655364
25.0455;1.08534;238.915;0.338408;240;0.7;-0.632927
25.1556;0.894958;239.105;0.317478;240;0.7;-0.606262
25.3699;0.545273;239.455;0.15;240;0.7;-0.802262
25.4886;0.369949;239.63;0.162194;240;0.7;-0.630293
25.6086;0.204926;239.795;0.201907;240;0.7;-0.549324
25.7214;0.0613708;239.939;0.237165;240;0.7;-0.478178
25.8273;-0.062561;240.063;0.27322;240;0.699915;-0.411055
25.9353;-0.17804;240.178;0.280763;240;0.699261;-0.373989
26.0407;-0.280045;240.28;0.294751;240;0.698051;-0.333289
26.1501;-0.374786;240.375;0.29562;240;0.696255;-0.306939
26.2621;-0.4599;240.46;0.305735;240;0.693914;-0.273204
26.369;-0.530029;240.53;0.324482;240;0.691265;-0.234276
26.4765;-0.590317;240.59;0.339969;240;0.688251;-0.200704
26.5802;-0.63887;240.639;0.361656;240;0.685062;-0.163688
26.6858;-0.679077;240.679;0.376638;240;0.68158;-0.135172
26.7906;-0.71019;240.71;0.394625;240;0.677937;-0.105765
26.8947;-0.733093;240.733;0.410993;240;0.674178;-0.0799112
27.0001;-0.748535;240.749;0.427082;240;0.670273;-0.0560571
27.1044;-0.756744;240.757;0.444214;240;0.666343;-0.032943
27.2088;-0.758484;240.758;0.460589;240;0.662388;-0.0121776
27.3165;-0.753983;240.754;0.477174;240;0.658312;0.00735713
27.4215;-0.744064;240.744;0.493472;240;0.654379;0.0251094
27.5289;-0.728882;240.729;0.509885;240;0.650424;0.0416812
27.6351;-0.709183;240.709;0.525989;240;0.646604;0.05668
27.742;-0.68541;240.685;0.541289;240;0.642875;0.0697665
27.8514;-0.657425;240.657;0.557855;240;0.639202;0.08301
27.9564;-0.627716;240.628;0.569372;240;0.635826;0.0904749
28.0599;-0.596039;240.596;0.580573;240;0.63266;0.0969224
28.1635;-0.562378;240.562;0.592125;240;0.62966;0.10306
28.2734;-0.524994;240.525;0.606952;240;0.62667;0.11153
28.3774;-0.488464;240.488;0.615665;240;0.624035;0.113747
28.482;-0.451233;240.451;0.624706;240;0.621578;0.115936
28.5892;-0.412796;240.413;0.634615;240;0.619263;0.118551
28.6935;-0.375565;240.376;0.640488;240;0.617208;0.117171
28.8007;-0.337723;240.338;0.648519;240;0.615296;0.117654
28.9049;-0.301819;240.302;0.651856;240;0.61363;0.11368
29.0092;-0.266891;240.267;0.655313;240;0.612149;0.109887
29.1164;-0.232513;240.233;0.660722;240;0.61081;0.108041
29.2262;-0.199142;240.199;0.664722;240;0.609626;0.104881
29.3323;-0.168854;240.169;0.663163;240;0.608651;0.0967262
29.437;-0.141129;240.141;0.661771;240;0.60784;0.0892131
29.5419;-0.115616;240.116;0.660582;240;0.607168;0.0823186
29.6458;-0.0926361;240.093;0.65782;240;0.606627;0.0743519
29.7502;-0.0721741;240.072;0.654324;240;0.606198;0.06617
29.8555;-0.0541687;240.054;0.650675;240;0.605867;0.058351
29.9592;-0.0390472;240.039;0.645691;240;0.605626;0.0498276
30.0626;-0.0268402;240.027;0.639697;240;0.605456;0.0409506
30.1666;-0.0171661;240.017;0.63378;240;0.605343;0.0327292
30.2774;-0.0100098;240.01;0.627977;240;0.605268;0.0252108
30.3829;-0.00610352;240.006;0.619042;240;0.605227;0.015341
30.4869;-0.00509644;240.005;0.61003;240;0.605199;0.00610561
30.5944;-0.00688171;240.007;0.600855;240;0.605167;-0.00259147
30.6969;-0.0111542;240.011;0.591465;240;0.605122;-0.0108685
30.8015;-0.0179596;240.018;0.581878;240;0.605047;-0.0186788
30.9095;-0.0275116;240.028;0.57107;240;0.604925;-0.026977
31.0157;-0.0393219;240.039;0.560404;240;0.604748;-0.0345138
31.1203;-0.0531616;240.053;0.55018;240;0.604507;-0.0410369
31.2245;-0.0690308;240.069;0.539521;240;0.604189;-0.047411
31.3284;-0.0866699;240.087;0.528727;240;0.603785;-0.0533909
31.4318;-0.105927;240.106;0.518121;240;0.603288;-0.0586854
31.5356;-0.126938;240.127;0.506823;240;0.602684;-0.0641273
31.6401;-0.149567;240.15;0.495277;240;0.601963;-0.069294
31.7424;-0.172791;240.173;0.486176;240;0.601139;-0.0717655
31.8453;-0.197433;240.197;0.475127;240;0.600187;-0.0757007
31.9492;-0.223145;240.223;0.464103;240;0.599094;-0.0792046
32.0565;-0.250519;240.251;0.451136;240;0.597824;-0.0840585
32.167;-0.279297;240.279;0.438349;240;0.596361;-0.0881875
32.2734;-0.307434;240.307;0.431202;240;0.594799;-0.0867389
32.3828;-0.336441;240.336;0.419603;240;0.593039;-0.0893252
32.496;-0.366394;240.366;0.407309;240;0.59105;-0.0921427
32.6072;-0.395554;240.396;0.398173;240;0.588931;-0.0918698
32.7163;-0.423691;240.424;0.391849;240;0.586697;-0.0889253
32.8276;-0.451599;240.452;0.38349;240;0.584262;-0.0878716
32.9304;-0.476639;240.477;0.382016;240;0.581875;-0.080699
33.0346;-0.501083;240.501;0.376827;240;0.579328;-0.0772303
33.1376;-0.524124;240.524;0.37223;240;0.576688;-0.0734268
33.2426;-0.546371;240.546;0.366733;240;0.573877;-0.0705512
33.3513;-0.567734;240.568;0.361015;240;0.57085;-0.0679012
33.4554;-0.586624;240.587;0.359944;240;0.567845;-0.061245
33.5591;-0.60379;240.604;0.358499;240;0.564758;-0.0553115
33.6628;-0.619202;240.619;0.35685;240;0.561585;-0.0499346
33.7661;-0.632721;240.633;0.356116;240;0.558354;-0.0440576
33.8699;-0.64444;240.644;0.355493;240;0.555037;-0.0384332
33.9744;-0.654266;240.654;0.355605;240;0.551643;-0.0324717
34.0792;-0.66214;240.662;0.35615;240;0.548196;-0.0265112
34.1826;-0.667831;240.668;0.357868;240;0.544757;-0.0199318
34.2932;-0.671677;240.672;0.358875;240;0.541051;-0.0142571
34.3978;-0.673157;240.673;0.362178;240;0.537533;-0.00706609
34.5022;-0.672714;240.673;0.365244;240;0.534021;-0.000597734
34.6064;-0.67012;240.67;0.368988;240;0.530522;0.00599582
34.7158;-0.665283;240.665;0.373178;240;0.52687;0.0126284
34.8245;-0.658218;240.658;0.378174;240;0.523273;0.0194559
34.9406;-0.648483;240.648;0.384397;240;0.51948;0.0270383
35.0546;-0.636459;240.636;0.391344;240;0.515814;0.0346444
35.1679;-0.622452;240.622;0.397927;240;0.512248;0.0412918
35.2781;-0.606934;240.607;0.403705;240;0.50886;0.0465791
35.3892;-0.589432;240.589;0.410725;240;0.505539;0.0525447
35.499;-0.570374;240.57;0.417414;240;0.502354;0.0576528
35.6022;-0.551056;240.551;0.421377;240;0.49946;0.0596806
35.7092;-0.529541;240.53;0.429574;240;0.496569;0.0653902
35.8151;-0.506882;240.507;0.436892;240;0.493825;0.0697866
35.9292;-0.481094;240.481;0.448158;240;0.491006;0.0774254
36.0352;-0.456161;240.456;0.452299;240;0.488523;0.0778164
36.1393;-0.430603;240.431;0.457577;240;0.486214;0.0790133
36.243;-0.404419;240.404;0.463985;240;0.484049;0.0810404
36.355;-0.375137;240.375;0.475619;240;0.481865;0.0875384
36.4614;-0.346786;240.347;0.481739;240;0.479945;0.0884912
36.5712;-0.317017;240.317;0.491119;240;0.478124;0.0922492
36.6835;-0.286209;240.286;0.500264;240;0.47643;0.095386
36.7917;-0.25618;240.256;0.505333;240;0.474962;0.0944155
36.8963;-0.227051;240.227;0.508738;240;0.473699;0.0918017
37.0003;-0.198135;240.198;0.513574;240;0.472593;0.0905142
37.1054;-0.16893;240.169;0.520722;240;0.471629;0.0913261
37.21;-0.140121;240.14;0.526515;240;0.470821;0.0907244
37.3145;-0.111603;240.112;0.531826;240;0.470164;0.0895628
37.4203;-0.083313;240.083;0.536445;240;0.469648;0.0876252
37.5391;-0.0521545;240.052;0.551061;240;0.469246;0.094853
37.6529;-0.0231934;240.023;0.554681;240;0.469032;0.0914474
37.7634;0.00404358;239.996;0.556883;240;0.46898;0.086892
37.8752;0.0307159;239.969;0.56103;240;0.469077;0.0842737
37.9884;0.0566254;239.943;0.565482;240;0.469325;0.0820012
38.0928;0.079361;239.921;0.563693;240;0.46968;0.0741725
38.2033;0.102219;239.898;0.567962;240;0.470182;0.0722255
38.3189;0.124649;239.875;0.573014;240;0.470838;0.0710138
38.4268;0.144272;239.856;0.571649;240;0.471564;0.0640172
38.5394;0.163315;239.837;0.574347;240;0.472431;0.0610878
38.6446;0.179672;239.82;0.571753;240;0.473333;0.0535015
38.7489;0.194611;239.805;0.571572;240;0.474309;0.0486097
38.8566;0.208679;239.791;0.572339;240;0.475395;0.0447735
38.9598;0.220795;239.779;0.571268;240;0.476504;0.0395658
39.0642;0.231461;239.769;0.570354;240;0.477685;0.0348033
39.1678;0.240906;239.759;0.569816;240;0.47891;0.0306796
39.275;0.249313;239.751;0.570027;240;0.480224;0.0274747
39.3851;0.256363;239.744;0.569003;240;0.481616;0.0232958
39.4906;0.261719;239.738;0.56671;240;0.482983;0.0182976
39.5942;0.265915;239.734;0.565147;240;0.484349;0.0143191
39.697;0.26889;239.731;0.563294;240;0.485725;0.0103469
39.8011;0.270599;239.729;0.561355;240;0.487129;0.00657646
39.9064;0.27121;239.729;0.559359;240;0.488556;0.00300029
40.0124;0.270691;239.729;0.557233;240;0.489992;-0.000432022
40.1158;0.269104;239.731;0.554834;240;0.491388;-0.00383036
40.2188;0.266388;239.734;0.551969;240;0.492767;-0.00739492
40.3325;0.262543;239.737;0.549242;240;0.49427;-0.010664
40.4402;0.257919;239.742;0.546784;240;0.495673;-0.0133686
40.5461;0.252533;239.747;0.54415;240;0.497024;-0.0160067
40.6537;0.246048;239.754;0.540614;240;0.498366;-0.0192635
40.76;0.238876;239.761;0.537827;240;0.499655;-0.0215469
40.8715;0.23082;239.769;0.534528;240;0.500963;-0.0241403
40.985;0.221756;239.778;0.530659;240;0.502249;-0.0270286
41.0963;0.212448;239.788;0.527984;240;0.503457;-0.0285849
41.2075;0.202484;239.798;0.524824;240;0.50461;-0.0304069
41.3187;0.1922;239.808;0.52211;240;0.505707;-0.0316472
41.4317;0.181335;239.819;0.518865;240;0.506763;-0.0332317
41.543;0.170334;239.83;0.516267;240;0.507741;-0.0340572
41.6558;0.158966;239.841;0.513317;240;0.50867;-0.0350949
41.7711;0.147186;239.853;0.509942;240;0.509553;-0.0364068
41.884;0.135788;239.864;0.508286;240;0.510351;-0.0360129
41.9895;0.125122;239.875;0.508414;240;0.511039;-0.0339057
42.0933;0.11467;239.885;0.507288;240;0.511662;-0.0330411
42.1964;0.104523;239.895;0.506289;240;0.512227;-0.0320677
42.3;0.0946045;239.905;0.505186;240;0.512742;-0.0312067
42.4111;0.0842133;239.916;0.502847;240;0.513239;-0.031445
42.5147;0.0747528;239.925;0.502383;240;0.51365;-0.0299549
42.6223;0.0653381;239.935;0.500718;240;0.514027;-0.0296434
42.7363;0.0558929;239.944;0.498798;240;0.514372;-0.0295475
42.8436;0.0474396;239.953;0.499218;240;0.51465;-0.0272915
42.9507;0.0394897;239.961;0.499337;240;0.514882;-0.0254172
