Airframe: Cessna_CitationX
Kp: 0.25
Ki: 0.05
Kd: 0.1
tau: 0.005
limMin: 0.15
limMax: 0.9
intLimMin: 0.05
intLimMax: 0.7
holdSpeed: 245
T: 0.05
setpoint: 245
t;error;speed;out;setpoint;Int;Diff
0.196289;5.32472;239.675;0.15;245;0.087176;-47.1552
0.322998;5.26262;239.737;0.15;245;0.120714;-25.0933
0.449951;5.19928;239.801;0.15;245;0.153919;-13.4397
0.575562;5.1357;239.864;0.15;245;0.186374;-7.22057
0.70166;5.07172;239.928;0.15;245;0.218552;-3.95914
0.829102;5.00795;239.992;0.15;245;0.250666;-2.25185
0.944092;4.95241;240.048;0.271637;245;0.279298;-1.24576
1.07178;4.89424;240.106;0.736517;245;0.310728;-0.797772
1.20251;4.84032;240.16;0.9;245;0.342543;-0.554352
1.31885;4.79817;240.202;0.9;245;0.370572;-0.38043
1.43726;4.76231;240.238;0.9;245;0.39887;-0.280223
1.5426;4.73685;240.263;0.9;245;0.423886;-0.197435
1.67053;4.71471;240.285;0.9;245;0.454111;-0.156018
1.7981;4.70204;240.298;0.9;245;0.484138;-0.111696
1.91565;4.69846;240.302;0.9;245;0.511762;-0.0634459
2.03979;4.7021;240.298;0.9;245;0.540935;-0.023688
2.16382;4.71252;240.287;0.9;245;0.570123;0.0131301
2.28772;4.72842;240.272;0.9;245;0.599365;0.0453482
2.41687;4.7494;240.251;0.9;245;0.629965;0.0734788
2.55029;4.77409;240.226;0.9;245;0.66173;0.0961973
2.68335;4.8002;240.2;0.9;245;0.693578;0.111907
2.79956;4.823;240.177;0.9;245;0.7;0.113276
2.91626;4.84499;240.155;0.9;245;0.7;0.109137
3.03589;4.86577;240.134;0.9;245;0.7;0.106791
3.1665;4.8855;240.115;0.9;245;0.7;0.102838
3.26819;4.89813;240.102;0.9;245;0.7;0.0807509
3.40002;4.91017;240.09;0.9;245;0.7;0.0708083
3.51807;4.91629;240.084;0.9;245;0.7;0.0492402
3.64905;4.91731;240.083;0.9;245;0.7;0.0284045
3.76611;4.91277;240.087;0.9;245;0.7;0.00210558
3.87073;4.90404;240.096;0.9;245;0.7;-0.0231713
3.99036;4.88834;240.112;0.9;245;0.7;-0.0510278
4.11621;4.86505;240.135;0.9;245;0.7;-0.082629
4.24268;4.8343;240.166;0.9;245;0.7;-0.116955
4.35852;4.79991;240.2;0.9;245;0.7;-0.14561
4.47546;4.75874;240.241;0.9;245;0.7;-0.176763
4.59143;4.71158;240.288;0.9;245;0.7;-0.202933
4.724;4.64986;240.35;0.9;245;0.7;-0.251906
4.84338;4.58722;240.413;0.9;245;0.7;-0.283613
4.97314;4.5116;240.488;0.9;245;0.7;-0.328164
5.10498;4.42685;240.573;0.9;245;0.7;-0.372725
5.23755;4.33344;240.667;0.9;245;0.7;-0.416611
5.35303;4.24553;240.754;0.9;245;0.7;-0.429719
5.48364;4.13916;240.861;0.9;245;0.7;-0.47713
5.61499;4.0247;240.975;0.9;245;0.7;-0.521718
5.73157;3.91707;241.083;0.9;245;0.7;-0.531392
5.86292;3.7892;241.211;0.9;245;0.7;-0.581777
5.98621;3.66277;241.337;0.9;245;0.7;-0.591228
6.08716;3.55499;241.445;0.9;245;0.7;-0.563137
6.1875;3.44408;241.556;0.9;245;0.7;-0.559052
6.30359;3.31139;241.689;0.9;245;0.7;-0.613839
6.41968;3.1738;241.826;0.839816;245;0.7;-0.653633
6.52551;3.04442;241.956;0.809186;245;0.7;-0.651919
6.65381;2.88272;242.117;0.695915;245;0.7;-0.724765
6.77917;2.72011;242.28;0.61318;245;0.7;-0.766847
6.90796;2.54903;242.451;0.528959;245;0.7;-0.808298
7.02429;2.39186;242.608;0.498617;245;0.7;-0.799348
7.15491;2.21378;242.786;0.412938;245;0.7;-0.840506
7.28491;2.03653;242.963;0.347849;245;0.7;-0.861283
7.41431;1.86198;243.138;0.299108;245;0.7;-0.866388
7.54382;1.69107;243.309;0.26608;245;0.7;-0.856688
7.66833;1.53209;243.468;0.256381;245;0.7;-0.826641
7.79907;1.3728;243.627;0.230789;245;0.7;-0.812412
7.91406;1.24046;243.76;0.272767;245;0.7;-0.737349
8.03088;1.11473;243.885;0.29408;245;0.7;-0.684602
8.15588;0.99118;244.009;0.296015;245;0.7;-0.65178
8.28271;0.878174;244.122;0.309115;245;0.7;-0.610428
8.40723;0.779831;244.22;0.34146;245;0.7;-0.553497
8.53137;0.694336;244.306;0.381647;245;0.7;-0.491937
8.6571;0.620621;244.379;0.422669;245;0.7;-0.432486
8.78162;0.560104;244.44;0.470527;245;0.7;-0.369499
8.90649;0.511459;244.489;0.519427;245;0.7;-0.308438
9.0304;0.474716;244.525;0.570915;245;0.7;-0.247764
9.15576;0.448105;244.552;0.61968;245;0.7;-0.192346
9.28088;0.431366;244.569;0.668006;245;0.7;-0.139835
9.40979;0.423508;244.576;0.713517;245;0.7;-0.0923595
9.53638;0.424026;244.576;0.759179;245;0.7;-0.0468272
9.6637;0.431519;244.568;0.801247;245;0.7;-0.00663263
9.78894;0.444534;244.555;0.838994;245;0.7;0.02786
9.91724;0.46228;244.538;0.87221;245;0.7;0.0566402
10.0195;0.47879;244.521;0.890898;245;0.7;0.0712
10.1451;0.501053;244.499;0.9;245;0.7;0.090343
10.275;0.524918;244.475;0.9;245;0.7;0.10398
10.3901;0.546112;244.454;0.9;245;0.7;0.102765
10.5216;0.569168;244.431;0.9;245;0.7;0.10834
10.6528;0.589828;244.41;0.9;245;0.7;0.105708
10.7699;0.605301;244.395;0.9;245;0.7;0.0915043
10.8965;0.617935;244.382;0.9;245;0.7;0.0775631
11.0226;0.62561;244.374;0.9;245;0.7;0.0584706
11.1493;0.627579;244.372;0.891941;245;0.7;0.035046
11.2776;0.623169;244.377;0.863628;245;0.7;0.00783549
11.3925;0.613434;244.387;0.832008;245;0.7;-0.02135
11.5204;0.596024;244.404;0.796302;245;0.7;-0.0527035
11.6458;0.572403;244.428;0.75873;245;0.7;-0.0843711
11.7614;0.545059;244.455;0.726471;245;0.7;-0.109794
11.8674;0.515549;244.484;0.69906;245;0.7;-0.129827
11.9985;0.473877;244.526;0.65181;245;0.7;-0.166659
12.1285;0.427261;244.573;0.609194;245;0.7;-0.197622
12.2563;0.376938;244.623;0.571046;245;0.7;-0.223188
12.3848;0.322693;244.677;0.534552;245;0.7;-0.246121
12.5122;0.265793;244.734;0.501987;245;0.7;-0.264461
12.6398;0.206512;244.793;0.472157;245;0.7;-0.279471
12.7688;0.145233;244.855;0.444414;245;0.7;-0.291894
12.8966;0.0837708;244.916;0.42189;245;0.7;-0.299052
13.0139;0.02771;244.972;0.42154;245;0.7;-0.285388
13.1299;-0.0268097;245.027;0.413588;245;0.699962;-0.279672
13.2623;-0.0870056;245.087;0.388604;245;0.699584;-0.289229
13.3638;-0.131287;245.131;0.414677;245;0.69903;-0.251531
13.4945;-0.185196;245.185;0.392491;245;0.697994;-0.259204
13.6243;-0.234848;245.235;0.384211;245;0.69663;-0.253707
13.7532;-0.279816;245.28;0.385104;245;0.694969;-0.239911
13.8838;-0.320496;245.32;0.390708;245;0.693007;-0.222175
14.016;-0.356415;245.356;0.399136;245;0.690768;-0.202528
14.1295;-0.382935;245.383;0.426074;245;0.688668;-0.166861
14.2618;-0.408615;245.409;0.434835;245;0.686047;-0.149059
14.3646;-0.424698;245.425;0.466403;245;0.683905;-0.111328
14.48;-0.43866;245.439;0.483589;245;0.681413;-0.0881594
14.6113;-0.4496;245.45;0.493659;245;0.678495;-0.0724354
14.7421;-0.455276;245.455;0.510047;245;0.675535;-0.0516685
14.8588;-0.456314;245.456;0.530683;245;0.672874;-0.028112
14.9899;-0.453278;245.453;0.548701;245;0.669891;-0.00787047
15.1067;-0.447083;245.447;0.567419;245;0.66726;0.0119292
15.207;-0.439606;245.44;0.581472;245;0.665035;0.0263384
15.3088;-0.429977;245.43;0.593845;245;0.662822;0.0385179
15.4241;-0.417191;245.417;0.607807;245;0.660381;0.051724
15.5411;-0.402191;245.402;0.621126;245;0.657982;0.0636918
15.6577;-0.385773;245.386;0.632492;245;0.655685;0.0732502
15.7594;-0.370453;245.37;0.636239;245;0.653762;0.0750903
15.8734;-0.352768;245.353;0.645761;245;0.651701;0.0822518
16.0039;-0.332062;245.332;0.658472;245;0.649466;0.0920207
16.1057;-0.315857;245.316;0.654716;245;0.647817;0.0858631
16.235;-0.295654;245.296;0.66472;245;0.645841;0.0927921
16.3639;-0.276566;245.277;0.668658;245;0.643998;0.0938019
16.495;-0.258377;245.258;0.670148;245;0.642245;0.0924978
16.611;-0.243637;245.244;0.662949;245;0.64079;0.083068
16.7417;-0.229004;245.229;0.660294;245;0.639246;0.0782992
16.871;-0.216675;245.217;0.653943;245;0.637806;0.0703055
17.0006;-0.20668;245.207;0.645419;245;0.636435;0.0606535
17.1284;-0.199341;245.199;0.634524;245;0.635139;0.0492196
17.2579;-0.194641;245.195;0.622291;245;0.633865;0.0370863
17.3744;-0.192551;245.193;0.607558;245;0.632738;0.0229572
17.5051;-0.192734;245.193;0.595109;245;0.63148;0.0118122
17.6223;-0.195053;245.195;0.581401;245;0.630345;-0.000180139
17.7272;-0.198746;245.199;0.569442;245;0.629313;-0.0101839
17.8599;-0.205643;245.206;0.555064;245;0.627972;-0.0214981
17.976;-0.21347;245.213;0.54278;245;0.626757;-0.0306088
18.0961;-0.223251;245.223;0.530241;245;0.625446;-0.0393922
18.2256;-0.235504;245.236;0.515368;245;0.623961;-0.0497167
18.3541;-0.249069;245.249;0.501864;245;0.622404;-0.0582733
18.4828;-0.26387;245.264;0.48902;245;0.620755;-0.0657671
18.6116;-0.279236;245.279;0.478243;245;0.619006;-0.0709549
18.7408;-0.295364;245.295;0.467798;245;0.61715;-0.0755104
18.8704;-0.311615;245.312;0.459148;245;0.615184;-0.0781323
19;-0.327698;245.328;0.452066;245;0.613112;-0.0791212
19.13;-0.343246;245.343;0.446641;245;0.610931;-0.0784791
19.2596;-0.358063;245.358;0.442833;245;0.608658;-0.0763091
19.3894;-0.371719;245.372;0.441037;245;0.60629;-0.0723229
19.5209;-0.384171;245.384;0.440174;245;0.603805;-0.0675887
19.6381;-0.39386;245.394;0.444998;245;0.601525;-0.0580624
19.7701;-0.403015;245.403;0.445843;245;0.598893;-0.0522968
19.8877;-0.409454;245.409;0.451883;245;0.596505;-0.0422577
20.0114;-0.414505;245.415;0.456432;245;0.593957;-0.0338983
20.1328;-0.417358;245.417;0.462869;245;0.59143;-0.0242211
20.2452;-0.418228;245.418;0.470771;245;0.589081;-0.0137526
20.3535;-0.417618;245.418;0.477636;245;0.586818;-0.00477684
20.4606;-0.415436;245.415;0.48436;245;0.584588;0.00363146
20.5636;-0.411926;245.412;0.490856;245;0.582456;0.0113814
20.667;-0.40712;245.407;0.496935;245;0.580339;0.0183766
20.7687;-0.401123;245.401;0.502954;245;0.578284;0.0249509
20.8706;-0.393753;245.394;0.50945;245;0.576258;0.0316307
20.973;-0.385223;245.385;0.515842;245;0.574263;0.0378852
21.0845;-0.374878;245.375;0.523565;245;0.572145;0.0451404
21.1873;-0.364365;245.364;0.528437;245;0.570245;0.0492833
21.2877;-0.353226;245.353;0.533071;245;0.568442;0.0529357
21.4012;-0.339722;245.34;0.541328;245;0.566475;0.0597833
21.5146;-0.325363;245.325;0.549491;245;0.564589;0.0662429
21.6161;-0.31192;245.312;0.551907;245;0.562973;0.0669142
21.7301;-0.296371;245.296;0.559946;245;0.561239;0.0727998
21.8448;-0.280365;245.28;0.566252;245;0.559584;0.0767589
21.9578;-0.26445;245.264;0.570467;245;0.558046;0.0785332
22.0671;-0.248886;245.249;0.572859;245;0.556642;0.0784386
22.1785;-0.233047;245.233;0.575947;245;0.555301;0.078908
22.301;-0.215805;245.216;0.582461;245;0.553926;0.0824867
22.4133;-0.200317;245.2;0.581181;245;0.552758;0.0785029
22.5306;-0.184616;245.185;0.582933;245;0.551629;0.0774576
22.6437;-0.169937;245.17;0.582404;245;0.550627;0.0742605
22.7545;-0.156265;245.156;0.582027;245;0.549724;0.0713691
22.8768;-0.142075;245.142;0.58453;245;0.548812;0.0712371
23.007;-0.12796;245.128;0.586869;245;0.547934;0.0709251
23.1238;-0.116348;245.116;0.581134;245;0.547221;0.0629999
23.2386;-0.105835;245.106;0.577926;245;0.546583;0.0578016
23.37;-0.0952148;245.095;0.577668;245;0.545923;0.055548
23.5001;-0.0860443;245.086;0.574801;245;0.545334;0.0509777
23.6306;-0.0782318;245.078;0.57058;245;0.544799;0.0453392
23.7578;-0.0719452;245.072;0.565003;245;0.544322;0.038667
23.8915;-0.0668488;245.067;0.559682;245;0.543859;0.0325354
23.9946;-0.0639191;245.064;0.55021;245;0.543522;0.0226681
24.1138;-0.0614471;245.061;0.545328;245;0.543149;0.017541
24.2316;-0.0602722;245.06;0.539412;245;0.542791;0.0116896
24.36;-0.059906;245.06;0.5344;245;0.542405;0.00697128
24.4877;-0.0605927;245.061;0.528861;245;0.542021;0.00198779
24.6184;-0.062088;245.062;0.523643;245;0.541621;-0.00245537
24.733;-0.06427;245.064;0.518496;245;0.541259;-0.00669511
24.8485;-0.066864;245.067;0.51422;245;0.54088;-0.00994445
24.9626;-0.0699005;245.07;0.510307;245;0.54049;-0.0127083
25.0889;-0.0736084;245.074;0.506096;245;0.540038;-0.0155402
25.212;-0.0775299;245.078;0.502642;245;0.539573;-0.0175481
25.3414;-0.0817566;245.082;0.499458;245;0.539057;-0.0191606
25.4581;-0.0853729;245.085;0.499083;245;0.53857;-0.0181439
25.5769;-0.0888824;245.089;0.497949;245;0.538052;-0.0178823
25.7043;-0.092392;245.092;0.496687;245;0.537475;-0.01769
25.8317;-0.0955048;245.096;0.49638;245;0.536876;-0.0166201
25.9448;-0.0978851;245.098;0.497988;245;0.536329;-0.0138694
26.0784;-0.100067;245.1;0.498205;245;0.535668;-0.0124459
26.1814;-0.101089;245.101;0.501504;245;0.535149;-0.00837329
26.312;-0.101807;245.102;0.502979;245;0.534486;-0.00605545
26.4421;-0.101608;245.102;0.505708;245;0.533824;-0.00271395
26.5697;-0.100479;245.1;0.509324;245;0.53318;0.00126407
26.6711;-0.098877;245.099;0.513023;245;0.532674;0.00506822
26.7887;-0.096344;245.096;0.516951;245;0.5321;0.00893706
26.8905;-0.0935211;245.094;0.520073;245;0.531617;0.0118367
27.0077;-0.0895081;245.09;0.524749;245;0.53108;0.0160453
27.1086;-0.0853424;245.085;0.528065;245;0.530639;0.0187622
27.2251;-0.0798645;245.08;0.532869;245;0.530158;0.0226779
27.3567;-0.0727539;245.073;0.540097;245;0.529655;0.0286298
27.4854;-0.0649109;245.065;0.54659;245;0.529212;0.0336051
27.616;-0.0563202;245.056;0.552719;245;0.528816;0.0379829
27.7435;-0.0471954;245.047;0.558285;245;0.528486;0.0415986
27.8589;-0.0385284;245.039;0.560311;245;0.528238;0.0417047
27.9896;-0.0283356;245.028;0.566957;245;0.528019;0.046021
28.1188;-0.0178986;245.018;0.572329;245;0.52787;0.0489339
28.2518;-0.00698853;245.007;0.577399;245;0.527787;0.0513589
28.3785;0.003479;244.997;0.580443;245;0.527776;0.0517966
28.5099;0.0142212;244.986;0.583995;245;0.527834;0.0526047
28.6392;0.0246277;244.975;0.586387;245;0.52796;0.0522698
28.7673;0.0346222;244.965;0.587986;245;0.52815;0.05118
28.8949;0.04422;244.956;0.589094;245;0.528402;0.0496367
29.0237;0.0532837;244.947;0.589719;245;0.528716;0.0476823
29.1411;0.0610046;244.939;0.586663;245;0.529052;0.0423602
29.2699;0.0688782;244.931;0.587581;245;0.52947;0.0408916
29.3984;0.0758514;244.924;0.586901;245;0.529936;0.038002
29.5292;0.082077;244.918;0.585741;245;0.530452;0.034769
29.6445;0.0867615;244.913;0.581659;245;0.53094;0.0290288
29.7727;0.091156;244.909;0.579882;245;0.53151;0.0255827
29.9009;0.0943756;244.906;0.576754;245;0.532105;0.021055
30.0276;0.0967102;244.903;0.573454;245;0.532711;0.0165661
30.1543;0.0980835;244.902;0.56979;245;0.533328;0.0119412
30.2716;0.0985413;244.901;0.565598;245;0.533905;0.00705721
30.3966;0.098053;244.902;0.561526;245;0.53452;0.00249299
30.5249;0.0967865;244.903;0.557654;245;0.535145;-0.00168731
30.6486;0.0947876;244.905;0.553747;245;0.535737;-0.00568702
30.7732;0.09198;244.908;0.549598;245;0.536319;-0.00971625
30.9005;0.088562;244.911;0.54581;245;0.536894;-0.0132245
31.0251;0.0845184;244.915;0.541933;245;0.537434;-0.0166305
31.1489;0.0800629;244.92;0.538575;245;0.537943;-0.0193841
31.2725;0.0751648;244.925;0.53528;245;0.538423;-0.0219343
31.3975;0.06987;244.93;0.532208;245;0.538877;-0.0241362
31.5238;0.0639954;244.936;0.528641;245;0.539299;-0.026657
31.6501;0.0579834;244.942;0.525907;245;0.539685;-0.028274
31.7748;0.0518036;244.948;0.523383;245;0.540027;-0.0295952
31.8888;0.0460968;244.954;0.522648;245;0.540306;-0.0291825
32.0148;0.0397491;244.96;0.52007;245;0.540577;-0.0304438
32.1396;0.0333252;244.967;0.517935;245;0.540805;-0.0312006
32.2582;0.0273132;244.973;0.51746;245;0.540984;-0.0303525
32.3875;0.0209045;244.979;0.515217;245;0.54114;-0.0311489
32.5059;0.0150757;244.985;0.514793;245;0.541247;-0.0302224
32.6328;0.00904846;244.991;0.513556;245;0.541323;-0.0300295
32.7578;0.00343323;244.997;0.513193;245;0.541362;-0.0290273
32.8842;-0.00202942;245.002;0.512651;245;0.541366;-0.0282075
33.0105;-0.00727844;245.007;0.512377;245;0.541336;-0.0271396
33.1361;-0.0120087;245.012;0.512798;245;0.541276;-0.0254753
33.2648;-0.0163574;245.016;0.513374;245;0.541184;-0.0237208
33.3907;-0.0202026;245.02;0.514517;245;0.541069;-0.0215011
33.5167;-0.0237274;245.024;0.51537;245;0.54093;-0.0196283
33.6416;-0.0267334;245.027;0.516727;245;0.540772;-0.0173617
33.7664;-0.0293274;245.029;0.518054;245;0.540597;-0.0152109
33.8949;-0.0315857;245.032;0.519141;245;0.540401;-0.0133641
34.022;-0.0333862;245.033;0.520634;245;0.540195;-0.0112142
34.1504;-0.0345612;245.035;0.522638;245;0.539976;-0.00869776
34.2672;-0.0355225;245.036;0.524232;245;0.539772;-0.00665923
34.3923;-0.0362244;245.036;0.525341;245;0.539547;-0.00515024
34.5177;-0.0362854;245.036;0.527422;245;0.53932;-0.00282683
34.6411;-0.0361633;245.036;0.528927;245;0.539096;-0.0011285
34.7653;-0.035675;245.036;0.530622;245;0.538873;0.000667926
34.8951;-0.0348206;245.035;0.532317;245;0.538644;0.0023786
35.0266;-0.0336304;245.034;0.534038;245;0.538419;0.00402693
35.1416;-0.0323639;245.032;0.535363;245;0.538229;0.00522506
35.272;-0.0309143;245.031;0.536457;245;0.538023;0.00616346
35.4032;-0.0291748;245.029;0.537848;245;0.537825;0.00731585
35.5189;-0.0273743;245.027;0.538806;245;0.537662;0.00798776
35.6498;-0.0252838;245.025;0.540318;245;0.537489;0.00914959
35.7725;-0.0231018;245.023;0.541558;245;0.537341;0.00999259
35.8876;-0.0210419;245.021;0.542122;245;0.537214;0.0101679
36.0122;-0.0186157;245.019;0.54357;245;0.53709;0.0111335
36.1351;-0.0161133;245.016;0.54473;245;0.536984;0.0117741
36.2587;-0.0133972;245.013;0.546184;245;0.536893;0.0126406
36.3717;-0.0108948;245.011;0.546732;245;0.536824;0.0126314
36.4956;-0.00823975;245.008;0.547608;245;0.536765;0.0129035
36.6198;-0.00549316;245.005;0.548627;245;0.536722;0.0132775
36.7446;-0.00256348;245.003;0.549998;245;0.536697;0.0139416
36.8722;0.000473022;245;0.551365;245;0.53669;0.0145567
36.9884;0.00328064;244.997;0.551543;245;0.536701;0.0140213
37.1139;0.00646973;244.994;0.553265;245;0.536732;0.0149152
37.2399;0.00958252;244.99;0.554456;245;0.536782;0.0152779
37.3654;0.0129395;244.987;0.556069;245;0.536853;0.0159816
37.4877;0.0162811;244.984;0.557315;245;0.536942;0.0163026
37.6128;0.0196228;244.98;0.558489;245;0.537054;0.0165286
37.7432;0.0232239;244.977;0.56021;245;0.537194;0.0172098
37.8738;0.0270386;244.973;0.562234;245;0.537358;0.0181157
38.005;0.0308228;244.969;0.563739;245;0.537548;0.0184853
38.1351;0.0347595;244.965;0.565479;245;0.537761;0.0190277
38.2645;0.038681;244.961;0.566938;245;0.537999;0.0192683
38.3796;0.0421906;244.958;0.567265;245;0.538232;0.0184858
38.502;0.0462799;244.954;0.569528;245;0.538502;0.0194562
38.6284;0.0504913;244.95;0.57162;245;0.538808;0.0201887
38.7572;0.0548401;244.945;0.57382;245;0.539147;0.0209624
38.8822;0.0592804;244.941;0.575833;245;0.539504;0.0215092
39.0068;0.0637054;244.936;0.577629;245;0.539887;0.0218158
39.1322;0.0683289;244.932;0.5798;245;0.540301;0.0224173
39.2583;0.0729218;244.927;0.581621;245;0.540746;0.0226444
39.3835;0.0775604;244.922;0.583477;245;0.541218;0.0228696
39.5101;0.0824585;244.918;0.58601;245;0.541724;0.023672
39.6327;0.0873108;244.913;0.588051;245;0.542244;0.0239795
39.7576;0.0922241;244.908;0.590141;245;0.542804;0.024281
39.8881;0.0974274;244.903;0.592699;245;0.543423;0.0249194
40.0107;0.102356;244.898;0.594405;245;0.544036;0.0247799
40.1414;0.107635;244.892;0.597166;245;0.544722;0.0255357
40.2716;0.112915;244.887;0.599613;245;0.54544;0.0259448
40.3763;0.117157;244.883;0.598626;245;0.546042;0.0232945
40.5015;0.122131;244.878;0.601319;245;0.546791;0.0239959
40.6288;0.127075;244.873;0.603678;245;0.547584;0.0243249
40.7571;0.132004;244.868;0.605913;245;0.548415;0.0244973
40.8904;0.13707;244.863;0.608327;245;0.549312;0.0247472
41.0162;0.141617;244.858;0.609378;245;0.550189;0.0237846
41.1425;0.146057;244.854;0.610642;245;0.551097;0.023031
41.2676;0.150375;244.85;0.611909;245;0.552024;0.0222909
41.3918;0.15451;244.845;0.613101;245;0.552971;0.021502
41.5052;0.158234;244.842;0.61307;245;0.553858;0.0196534
41.6364;0.16214;244.838;0.615041;245;0.554908;0.0195973
41.7512;0.165375;244.835;0.614822;245;0.555849;0.01763
41.8687;0.168488;244.832;0.615579;245;0.556829;0.0166286
41.9694;0.170944;244.829;0.614604;245;0.557684;0.0141843
42.0709;0.173218;244.827;0.614473;245;0.558558;0.0126112
42.1882;0.175659;244.824;0.615536;245;0.559581;0.0120405
42.3065;0.177811;244.822;0.616342;245;0.560626;0.0112627
42.415;0.179611;244.82;0.616507;245;0.561596;0.0100081
42.5314;0.181396;244.819;0.617471;245;0.562646;0.00947629
42.6471;0.1828;244.817;0.617415;245;0.5637;0.00801564
42.7649;0.183899;244.816;0.617514;245;0.56478;0.0067594
42.8882;0.184982;244.815;0.618265;245;0.565916;0.00610258
43.014;0.185806;244.814;0.618641;245;0.567083;0.00510647
43.1365;0.186264;244.814;0.618519;245;0.568222;0.00373058
43.265;0.186401;244.814;0.618322;245;0.56942;0.00230216
43.3865;0.186295;244.814;0.618035;245;0.570552;0.000910242
43.5155;0.185989;244.814;0.61804;245;0.571752;-0.000209703
43.6381;0.185379;244.815;0.617667;245;0.57289;-0.00156765
43.769;0.184418;244.816;0.617137;245;0.574101;-0.00306843
