Airframe: Cessna_CitationX
Kp: 0.2
Ki: 0
Kd: 0.185
tau: 0.02
limMin: 0.15
limMax: 0.9
intLimMin: 0.05
intLimMax: 0.2
holdSpeed: 240
T: 0.02
setpoint: 240
t;error;speed;out;setpoint;Int;Diff
0.139648;35.5714;204.429;0.9;240;0.05;2.02032
0.259277;35.6966;204.303;0.9;240;0.05;0.0955221
0.378906;35.8224;204.178;0.9;240;0.05;0.143158
0.507324;35.9583;204.042;0.9;240;0.05;0.141594
0.616211;36.0741;203.926;0.9;240;0.05;0.100339
0.717773;36.1824;203.818;0.9;240;0.05;0.108778
0.836426;36.3091;203.691;0.9;240;0.05;0.153839
0.937744;36.4173;203.583;0.9;240;0.05;0.098476
1.04932;36.5355;203.464;0.9;240;0.05;0.0977762
1.15942;36.6508;203.349;0.9;240;0.05;0.0974061
1.27905;36.7737;203.226;0.9;240;0.05;0.145273
1.38306;36.8778;203.122;0.9;240;0.05;0.100869
1.48926;36.981;203.019;0.9;240;0.05;0.0922274
1.5979;37.0823;202.918;0.9;240;0.05;0.0929823
1.7085;37.1804;202.82;0.9;240;0.05;0.0785015
1.81299;37.2681;202.732;0.9;240;0.05;0.121299
1.91504;37.3482;202.652;0.9;240;0.05;0.0701676
2.03418;37.4342;202.566;0.9;240;0.05;0.0974765
2.14429;37.5061;202.494;0.9;240;0.05;0.0559689
2.25366;37.5695;202.43;0.9;240;0.05;0.0489414
2.354;37.6204;202.38;0.9;240;0.05;0.0429167
2.45605;37.6645;202.335;0.9;240;0.05;0.0381225
2.56689;37.7038;202.296;0.9;240;0.05;0.0309881
2.67676;37.7332;202.267;0.9;240;0.05;0.020445
2.79688;37.7545;202.245;0.9;240;0.05;0.0131701
2.90283;37.7637;202.236;0.9;240;0.05;0.00451492
3.01001;37.764;202.236;0.9;240;0.05;-0.00394937
3.11621;37.755;202.245;0.9;240;0.05;-0.0119821
3.22437;37.7364;202.264;0.9;240;0.05;-0.0194643
3.32959;37.7094;202.291;0.9;240;0.05;-0.0298373
3.43604;37.6733;202.327;0.9;240;0.05;-0.0365273
3.54395;37.6275;202.373;0.9;240;0.05;-0.0407157
3.64893;37.5744;202.426;0.9;240;0.05;-0.0518133
3.74927;37.5161;202.484;0.9;240;0.05;-0.0480246
3.8501;37.4498;202.55;0.9;240;0.05;-0.0652973
3.9541;37.3738;202.626;0.9;240;0.05;-0.108485
4.07373;37.2771;202.723;0.9;240;0.05;-0.0679369
4.17773;37.1852;202.815;0.9;240;0.05;-0.0829229
4.29639;37.0715;202.928;0.9;240;0.05;-0.13958
4.42529;36.9382;203.062;0.9;240;0.05;-0.147164
4.54395;36.8062;203.194;0.9;240;0.05;-0.0902781
4.65308;36.6779;203.322;0.9;240;0.05;-0.163543
4.7666;36.5371;203.463;0.9;240;0.05;-0.124642
4.8728;36.3992;203.601;0.9;240;0.05;-0.133081
4.97925;36.2552;203.745;0.9;240;0.05;-0.132369
5.08765;36.1027;203.897;0.9;240;0.05;-0.144537
5.19507;35.9461;204.054;0.9;240;0.05;-0.144509
5.30103;35.7868;204.213;0.9;240;0.05;-0.145934
5.40942;35.6185;204.381;0.9;240;0.05;-0.162182
5.52539;35.4332;204.567;0.9;240;0.05;-0.228961
5.63794;35.2488;204.751;0.9;240;0.05;-0.143312
5.74634;35.0666;204.933;0.9;240;0.05;-0.155825
5.86572;34.8611;205.139;0.9;240;0.05;-0.170581
5.99561;34.6322;205.368;0.9;240;0.05;-0.248665
6.09619;34.4516;205.548;0.9;240;0.05;-0.138254
6.20728;34.2484;205.752;0.9;240;0.05;-0.258284
6.31006;34.0576;205.942;0.9;240;0.05;-0.180607
6.43066;33.8295;206.171;0.9;240;0.05;-0.247702
6.53662;33.6267;206.373;0.9;240;0.05;-0.196568
6.64233;33.4215;206.578;0.9;240;0.05;-0.190776
6.7522;33.2058;206.794;0.9;240;0.05;-0.199003
6.85864;32.9947;207.005;0.9;240;0.05;-0.196527
6.96533;32.7809;207.219;0.9;240;0.05;-0.190496
7.08252;32.5436;207.456;0.9;240;0.05;-0.294334
7.19336;32.3169;207.683;0.9;240;0.05;-0.29604
7.3042;32.0885;207.911;0.9;240;0.05;-0.192347
7.41431;31.86;208.14;0.9;240;0.05;-0.197431
7.53394;31.6099;208.39;0.9;240;0.05;-0.205384
7.65356;31.3577;208.642;0.9;240;0.05;-0.304003
7.76074;31.1303;208.87;0.9;240;0.05;-0.202443
7.87109;30.8955;209.104;0.9;240;0.05;-0.307154
7.97437;30.6746;209.325;0.9;240;0.05;-0.195467
8.08447;30.4375;209.562;0.9;240;0.05;-0.173839
8.19312;30.2033;209.797;0.9;240;0.05;-0.292669
8.29614;29.9801;210.02;0.9;240;0.05;-0.199749
8.39648;29.7617;210.238;0.9;240;0.05;-0.204251
8.52637;29.4791;210.521;0.9;240;0.05;-0.303052
8.63647;29.2382;210.762;0.9;240;0.05;-0.192301
8.74536;28.9996;211;0.9;240;0.05;-0.214221
8.85376;28.7619;211.238;0.9;240;0.05;-0.29652
8.9541;28.5408;211.459;0.9;240;0.05;-0.201517
9.07373;28.2777;211.722;0.9;240;0.05;-0.2115
9.17749;28.0488;211.951;0.9;240;0.05;-0.220948
9.28589;27.8095;212.19;0.9;240;0.05;-0.221391
9.39111;27.5771;212.423;0.9;240;0.05;-0.21776
9.49854;27.3396;212.66;0.9;240;0.05;-0.225194
9.60742;27.0988;212.901;0.9;240;0.05;-0.218663
9.71631;26.8575;213.143;0.9;240;0.05;-0.254114
9.81812;26.6324;213.368;0.9;240;0.05;-0.18334
9.91919;26.4087;213.591;0.9;240;0.05;-0.211704
10.0295;26.1644;213.836;0.9;240;0.05;-0.317715
10.1416;25.9166;214.083;0.9;240;0.05;-0.175219
10.2537;25.6686;214.331;0.9;240;0.05;-0.203109
10.3721;25.4069;214.593;0.9;240;0.05;-0.173898
10.4739;25.1817;214.818;0.9;240;0.05;-0.205665
10.575;24.9582;215.042;0.9;240;0.05;-0.20426
10.6851;24.7154;215.285;0.9;240;0.05;-0.315912
10.7944;24.4741;215.526;0.9;240;0.05;-0.169567
10.9238;24.1887;215.811;0.9;240;0.05;-0.32507
11.0349;23.9445;216.055;0.9;240;0.05;-0.22911
11.1472;23.6971;216.303;0.9;240;0.05;-0.199092
11.2483;23.4753;216.525;0.9;240;0.05;-0.207187
11.3777;23.1911;216.809;0.9;240;0.05;-0.31759
11.479;22.9687;217.031;0.9;240;0.05;-0.213205
11.5815;22.7439;217.256;0.9;240;0.05;-0.206562
11.6841;22.5198;217.48;0.9;240;0.05;-0.202098
11.7996;22.2667;217.733;0.9;240;0.05;-0.216315
11.908;22.0298;217.97;0.9;240;0.05;-0.295076
12.022;21.7814;218.219;0.9;240;0.05;-0.226085
12.1301;21.5458;218.454;0.9;240;0.05;-0.212863
12.239;21.3089;218.691;0.9;240;0.05;-0.209883
12.3459;21.0761;218.924;0.9;240;0.05;-0.216766
12.458;20.8329;219.167;0.9;240;0.05;-0.230319
12.5706;20.5889;219.411;0.9;240;0.05;-0.224979
12.6787;20.3545;219.646;0.9;240;0.05;-0.216873
12.7883;20.1173;219.883;0.9;240;0.05;-0.232548
12.8958;19.885;220.115;0.9;240;0.05;-0.217796
13.0081;19.6428;220.357;0.9;240;0.05;-0.222747
13.1189;19.4037;220.596;0.9;240;0.05;-0.210259
13.2268;19.1712;220.829;0.9;240;0.05;-0.212988
13.333;18.9424;221.058;0.9;240;0.05;-0.211991
13.4424;18.7072;221.293;0.9;240;0.05;-0.216859
13.5491;18.4777;221.522;0.9;240;0.05;-0.204218
13.655;18.2502;221.75;0.9;240;0.05;-0.209778
13.7693;18.005;221.995;0.9;240;0.05;-0.286442
13.8784;17.7713;222.229;0.9;240;0.05;-0.210496
13.9851;17.5423;222.458;0.9;240;0.05;-0.220632
14.0962;17.3049;222.695;0.9;240;0.05;-0.231982
14.21;17.0616;222.938;0.9;240;0.05;-0.307013
14.3196;16.8274;223.173;0.9;240;0.05;-0.208671
14.4304;16.5909;223.409;0.9;240;0.05;-0.301723
14.5493;16.3369;223.663;0.9;240;0.05;-0.300377
14.6685;16.0831;223.917;0.9;240;0.05;-0.311865
14.7881;15.8281;224.172;0.9;240;0.05;-0.163903
14.8943;15.6017;224.398;0.9;240;0.05;-0.214902
15.0024;15.3712;224.629;0.9;240;0.05;-0.208738
15.1113;15.1394;224.861;0.9;240;0.05;-0.207544
15.2207;14.9068;225.093;0.9;240;0.05;-0.207396
15.3308;14.6726;225.327;0.9;240;0.05;-0.21133
15.437;14.4471;225.553;0.9;240;0.05;-0.21398
15.5439;14.2194;225.781;0.9;240;0.05;-0.206613
15.6536;13.9865;226.013;0.9;240;0.05;-0.222045
15.7617;13.7567;226.243;0.9;240;0.05;-0.208211
15.8711;13.5241;226.476;0.9;240;0.05;-0.191167
15.9783;13.2968;226.703;0.9;240;0.05;-0.29802
16.0823;13.0758;226.924;0.9;240;0.05;-0.201213
16.1882;12.8506;227.149;0.9;240;0.05;-0.208475
16.2993;12.6152;227.385;0.9;240;0.05;-0.206516
16.4109;12.3779;227.622;0.9;240;0.05;-0.208849
16.5315;12.1224;227.878;0.9;240;0.05;-0.284829
16.6362;11.8997;228.1;0.9;240;0.05;-0.199916
16.74;11.6795;228.321;0.9;240;0.05;-0.288748
16.8496;11.4464;228.554;0.9;240;0.05;-0.189979
16.9583;11.2159;228.784;0.9;240;0.05;-0.165812
17.0691;10.9807;229.019;0.9;240;0.05;-0.191173
17.1707;10.7653;229.235;0.9;240;0.05;-0.193517
17.2722;10.5495;229.451;0.9;240;0.05;-0.205424
17.3748;10.3319;229.668;0.9;240;0.05;-0.184746
17.4812;10.1059;229.894;0.9;240;0.05;-0.196354
17.5898;9.87495;230.125;0.9;240;0.05;-0.209571
17.6948;9.65225;230.348;0.9;240;0.05;-0.204027
17.8071;9.41359;230.586;0.9;240;0.05;-0.278781
17.9207;9.17256;230.827;0.9;240;0.05;-0.294829
18.0405;8.91829;231.082;0.9;240;0.05;-0.168941
18.1589;8.66638;231.334;0.9;240;0.05;-0.17286
18.2683;8.43414;231.566;0.9;240;0.05;-0.208628
18.3689;8.22055;231.779;0.9;240;0.05;-0.19532
18.4841;7.97575;232.024;0.9;240;0.05;-0.204287
18.6018;7.72527;232.275;0.9;240;0.05;-0.310685
18.7134;7.48798;232.512;0.9;240;0.05;-0.231285
18.8142;7.27377;232.726;0.9;240;0.05;-0.19513
18.9341;7.01892;232.981;0.9;240;0.05;-0.280496
19.0398;6.79408;233.206;0.9;240;0.05;-0.207675
19.1482;6.56384;233.436;0.9;240;0.05;-0.214007
19.2544;6.3378;233.662;0.9;240;0.05;-0.217085
19.3599;6.11339;233.887;0.9;240;0.05;-0.205386
19.4688;5.88214;234.118;0.9;240;0.05;-0.229035
19.574;5.65839;234.342;0.9;240;0.05;-0.208735
19.6812;5.43018;234.57;0.9;240;0.05;-0.201247
19.7878;5.20329;234.797;0.863412;240;0.05;-0.227247
19.9082;4.94731;235.053;0.767079;240;0.05;-0.272384
20.0183;4.71291;235.287;0.828167;240;0.05;-0.164414
20.1287;4.47865;235.521;0.744811;240;0.05;-0.20092
20.2292;4.26506;235.735;0.595897;240;0.05;-0.307115
20.3481;4.01414;235.986;0.694666;240;0.05;-0.158163
20.45;3.80008;236.2;0.602;240;0.05;-0.208016
20.5605;3.57042;236.43;0.55439;240;0.05;-0.209693
20.6616;3.3623;236.638;0.529804;240;0.05;-0.192657
20.7913;3.10023;236.9;0.378873;240;0.05;-0.291174
20.9099;2.86615;237.134;0.475793;240;0.05;-0.147437
21.0105;2.67265;237.327;0.409539;240;0.05;-0.174992
21.1123;2.48175;237.518;0.353104;240;0.05;-0.193246
21.2234;2.28076;237.719;0.330559;240;0.05;-0.175593
21.333;2.08995;237.91;0.297633;240;0.05;-0.170358
21.4424;1.90781;238.092;0.279959;240;0.05;-0.151603
21.5503;1.73698;238.263;0.191363;240;0.05;-0.206033
21.6577;1.576;238.424;0.154007;240;0.05;-0.211194
21.7852;1.39813;238.602;0.151206;240;0.05;-0.178421
21.9006;1.24908;238.751;0.185999;240;0.05;-0.113818
22.0198;1.10832;238.892;0.159218;240;0.05;-0.112447
22.1516;0.968109;239.032;0.15;240;0.05;-0.154926
22.262;0.863464;239.137;0.15;240;0.05;-0.0815448
22.3704;0.772064;239.228;0.15;240;0.05;-0.0608429
22.4717;0.696716;239.303;0.15;240;0.05;-0.0745636
22.5784;0.628143;239.372;0.15;240;0.05;-0.0557957
22.699;0.563797;239.436;0.15;240;0.05;-0.0645646
22.8142;0.514954;239.485;0.15;240;0.05;-0.0365553
22.9202;0.480682;239.519;0.15;240;0.05;-0.0262631
23.0298;0.455734;239.544;0.15;240;0.05;-0.0179235
23.1353;0.441254;239.559;0.15;240;0.05;-0.00965509
23.241;0.435913;239.564;0.15;240;0.05;-0.000939315
23.3491;0.439362;239.561;0.15;240;0.05;0.00673356
23.4541;0.450989;239.549;0.154825;240;0.05;0.014627
23.5608;0.470718;239.529;0.164038;240;0.05;0.0198938
23.6675;0.49794;239.502;0.178276;240;0.05;0.0286884
23.7759;0.532974;239.467;0.191554;240;0.05;0.0349595
23.8865;0.576218;239.424;0.270078;240;0.05;0.104834
24.0056;0.629623;239.37;0.236874;240;0.05;0.0609491
24.1101;0.68219;239.318;0.255367;240;0.05;0.068929
24.2271;0.746902;239.253;0.255781;240;0.05;0.0564001
24.3352;0.812012;239.188;0.275059;240;0.05;0.0626569
24.4412;0.879913;239.12;0.289492;240;0.05;0.0635094
24.5488;0.953003;239.047;0.306576;240;0.05;0.0659753
24.6555;1.02902;238.971;0.326623;240;0.05;0.0708189
24.7607;1.10715;238.893;0.345466;240;0.05;0.0740361
24.8665;1.18816;238.812;0.358742;240;0.05;0.0711106
24.9744;1.27339;238.727;0.385128;240;0.05;0.0804494
25.0815;1.35986;238.64;0.402051;240;0.05;0.0800785
25.1887;1.44814;238.552;0.420207;240;0.05;0.0805798
25.2949;1.53685;238.463;0.440792;240;0.05;0.0834216
25.4006;1.62611;238.374;0.455071;240;0.05;0.0798483
25.5061;1.71588;238.284;0.475896;240;0.05;0.0827196
25.6125;1.80704;238.193;0.494357;240;0.05;0.0829494
25.7183;1.89746;238.103;0.514822;240;0.05;0.0853298
25.823;1.9868;238.013;0.526124;240;0.05;0.0787642
25.9434;2.08871;237.911;0.586394;240;0.05;0.118651
26.052;2.1797;237.82;0.566643;240;0.05;0.0807027
26.1807;2.28563;237.714;0.618231;240;0.05;0.111106
26.2996;2.38144;237.619;0.643697;240;0.05;0.117409
26.4172;2.47391;237.526;0.651069;240;0.05;0.106288
26.5188;2.55157;237.448;0.633086;240;0.05;0.0727713
26.6287;2.633;237.367;0.680269;240;0.05;0.10367
26.74;2.71251;237.287;0.663957;240;0.05;0.0714552
26.8484;2.78696;237.213;0.672177;240;0.05;0.0647857
26.9683;2.86523;237.135;0.688589;240;0.05;0.0655425
27.0874;2.93896;237.061;0.68058;240;0.05;0.0427869
27.1978;3.00316;236.997;0.704093;240;0.05;0.0534616
27.3069;3.0627;236.937;0.710354;240;0.05;0.0478144
27.4077;3.11403;236.886;0.718798;240;0.05;0.045992
27.5078;3.16148;236.839;0.72738;240;0.05;0.0450829
27.6274;3.2135;236.786;0.733233;240;0.05;0.0405325
27.7327;3.25476;236.745;0.734642;240;0.05;0.0336894
27.8416;3.29303;236.707;0.73883;240;0.05;0.0302243
27.9553;3.32817;236.672;0.745025;240;0.05;0.0293905
28.0676;3.358;236.642;0.756154;240;0.05;0.0345534
28.1794;3.3826;236.617;0.740874;240;0.05;0.0143541
28.3076;3.40446;236.596;0.751217;240;0.05;0.0203245
28.4126;3.41766;236.582;0.74374;240;0.05;0.0102073
28.5208;3.42667;236.573;0.741725;240;0.05;0.00639141
28.6262;3.43092;236.569;0.737923;240;0.05;0.00173871
28.7329;3.43053;236.569;0.734227;240;0.05;-0.00187815
28.8403;3.42577;236.574;0.728878;240;0.05;-0.00627524
28.9456;3.41675;236.583;0.723162;240;0.05;-0.0101874
29.0525;3.40341;236.597;0.71597;240;0.05;-0.0147123
29.1616;3.38542;236.615;0.708981;240;0.05;-0.0181033
29.2676;3.36394;236.636;0.701275;240;0.05;-0.0215126
29.3733;3.33847;236.662;0.69151;240;0.05;-0.0261839
29.4812;3.30875;236.691;0.683126;240;0.05;-0.0286237
29.5886;3.2755;236.725;0.673108;240;0.05;-0.0319913
29.6958;3.23885;236.761;0.662485;240;0.05;-0.0352844
29.8032;3.19893;236.801;0.651855;240;0.05;-0.0379307
29.9153;3.15395;236.846;0.626758;240;0.05;-0.0540311
30.0193;3.10947;236.891;0.630553;240;0.05;-0.0413399
30.124;3.06226;236.938;0.617433;240;0.05;-0.0450182
30.2249;3.01466;236.985;0.607988;240;0.05;-0.044945
30.3357;2.95996;237.04;0.604902;240;0.05;-0.0370899
30.4429;2.90533;237.095;0.578159;240;0.05;-0.0529077
30.5493;2.8494;237.151;0.567648;240;0.05;-0.0522309
30.6699;2.78415;237.216;0.548227;240;0.05;-0.0586032
30.781;2.72281;237.277;0.540783;240;0.05;-0.0537788
30.9011;2.6555;237.344;0.524633;240;0.05;-0.0564671
31.0061;2.5963;237.404;0.517046;240;0.05;-0.0522135
31.1106;2.5365;237.464;0.501048;240;0.05;-0.0562523
31.2209;2.47365;237.526;0.486002;240;0.05;-0.058728
31.3296;2.41199;237.588;0.45223;240;0.05;-0.0801674
31.4382;2.35098;237.649;0.445279;240;0.05;-0.0749177
31.5408;2.29398;237.706;0.458553;240;0.05;-0.0502417
31.6511;2.23354;237.766;0.443091;240;0.05;-0.0536159
31.7539;2.17851;237.821;0.437204;240;0.05;-0.0484982
31.8679;2.11905;237.881;0.425197;240;0.05;-0.0486129
31.9961;2.05444;237.946;0.389549;240;0.05;-0.0713394
32.1057;2.00139;237.999;0.3828;240;0.05;-0.0674782
32.2241;1.94662;238.053;0.394534;240;0.05;-0.0447907
32.3323;1.8992;238.101;0.370896;240;0.05;-0.0589445
32.4587;1.84698;238.153;0.365941;240;0.05;-0.0534559
32.5735;1.8028;238.197;0.362933;240;0.05;-0.0476257
32.6902;1.76108;238.239;0.353792;240;0.05;-0.048424
32.8113;1.72147;238.279;0.352602;240;0.05;-0.0416916
32.9353;1.68509;238.315;0.347446;240;0.05;-0.0395716
33.0535;1.65448;238.346;0.346704;240;0.05;-0.0341923
33.1646;1.62949;238.371;0.354806;240;0.05;-0.0210917
33.2646;1.6098;238.39;0.352495;240;0.05;-0.0194651
33.3787;1.59103;238.409;0.35281;240;0.05;-0.0153965
33.4895;1.57652;238.423;0.353996;240;0.05;-0.0113083
33.5903;1.56625;238.434;0.35195;240;0.05;-0.0113006
33.6975;1.55864;238.441;0.357264;240;0.05;-0.00446386
33.8213;1.5538;238.446;0.357439;240;0.05;-0.00332147
33.9341;1.55318;238.447;0.361796;240;0.05;0.00116016
34.0593;1.55664;238.443;0.367388;240;0.05;0.00605939
34.1724;1.56323;238.437;0.369342;240;0.05;0.0066952
34.3049;1.57526;238.425;0.382851;240;0.05;0.0177999
34.427;1.59003;238.41;0.385516;240;0.05;0.017511
34.5505;1.60851;238.391;0.39508;240;0.05;0.0233789
34.6641;1.62846;238.372;0.398651;240;0.05;0.0229581
34.7695;1.64938;238.351;0.400731;240;0.05;0.020854
34.8787;1.67332;238.327;0.405779;240;0.05;0.0211138
34.9971;1.70186;238.298;0.409469;240;0.05;0.0190969
35.1123;1.73184;238.268;0.432131;240;0.05;0.0357624
35.2292;1.76431;238.236;0.430273;240;0.05;0.0274105
35.3433;1.79787;238.202;0.433119;240;0.05;0.0235459
35.4639;1.83516;238.165;0.458814;240;0.05;0.0417821
35.5715;1.8698;238.13;0.467772;240;0.05;0.0438128
35.6797;1.90585;238.094;0.478567;240;0.05;0.0473966
35.7896;1.94339;238.057;0.470795;240;0.05;0.0321175
35.9092;1.98528;238.015;0.478807;240;0.05;0.0317518
36.0266;2.02711;237.973;0.489881;240;0.05;0.0344579
36.134;2.06595;237.934;0.499622;240;0.05;0.0364322
36.2463;2.10698;237.893;0.511058;240;0.05;0.0396619
36.353;2.146;237.854;0.513765;240;0.05;0.0345658
36.4739;2.19019;237.81;0.527062;240;0.05;0.0390251
36.5806;2.22885;237.771;0.530717;240;0.05;0.0349462
36.6929;2.26933;237.731;0.53371;240;0.05;0.0298436
36.802;2.30815;237.692;0.539261;240;0.05;0.0276311
36.9236;2.35042;237.65;0.565677;240;0.05;0.0455936
37.0686;2.3999;237.6;0.613661;240;0.05;0.0836803
37.1689;2.4334;237.567;0.66096;240;0.05;0.124281
37.2729;2.46654;237.533;0.590656;240;0.05;0.0473487
37.3782;2.49852;237.501;0.580178;240;0.05;0.0304738
37.4875;2.53036;237.47;0.588722;240;0.05;0.0326489
37.6038;2.56264;237.437;0.600214;240;0.05;0.0376861
37.7087;2.58997;237.41;0.592891;240;0.05;0.024898
37.814;2.61571;237.384;0.594804;240;0.05;0.0216627
37.9197;2.63988;237.36;0.60023;240;0.05;0.0222549
38.0312;2.66338;237.337;0.60361;240;0.05;0.0209352
38.1599;2.68802;237.312;0.614078;240;0.05;0.0264739
38.2705;2.70688;237.293;0.606787;240;0.05;0.0154111
38.3904;2.72505;237.275;0.614025;240;0.05;0.019015
38.499;2.73943;237.261;0.608017;240;0.05;0.0101321
38.6208;2.75301;237.247;0.614829;240;0.05;0.0142275
38.7292;2.76288;237.237;0.613419;240;0.05;0.0108432
38.8486;2.77165;237.228;0.609119;240;0.05;0.00478817
38.9666;2.7778;237.222;0.609967;240;0.05;0.00440669
39.0759;2.78133;237.219;0.609433;240;0.05;0.00316742
39.1853;2.7829;237.217;0.6077;240;0.05;0.00112071
39.3042;2.78241;237.218;0.6055;240;0.05;-0.000982079
39.4148;2.77969;237.22;0.602482;240;0.05;-0.00345624
39.52;2.77544;237.225;0.600313;240;0.05;-0.00477405
39.6252;2.76958;237.23;0.597757;240;0.05;-0.00615865
39.7324;2.76196;237.238;0.594588;240;0.05;-0.00780441
39.8386;2.75282;237.247;0.591082;240;0.05;-0.00948262
39.9441;2.74214;237.258;0.588597;240;0.05;-0.00983161
40.0544;2.72942;237.271;0.584796;240;0.05;-0.0110875
40.1616;2.71585;237.284;0.574511;240;0.05;-0.018659
40.2693;2.70074;237.299;0.578519;240;0.05;-0.0116302
40.3774;2.68417;237.316;0.574562;240;0.05;-0.0122729
40.4966;2.66473;237.335;0.567449;240;0.05;-0.015498
40.5999;2.6468;237.353;0.562105;240;0.05;-0.0172556
40.7085;2.62701;237.373;0.549812;240;0.05;-0.0255908
40.8262;2.60445;237.396;0.544068;240;0.05;-0.026821
40.9373;2.58237;237.418;0.547784;240;0.05;-0.0186897
41.051;2.55904;237.441;0.541706;240;0.05;-0.0201014
41.1565;2.53679;237.463;0.536586;240;0.05;-0.0207721
41.27;2.51234;237.488;0.53634;240;0.05;-0.0161293
41.3755;2.48929;237.511;0.526179;240;0.05;-0.0216787
41.4814;2.46597;237.534;0.522196;240;0.05;-0.0209989
41.5864;2.44258;237.557;0.516111;240;0.05;-0.0224053
41.6953;2.41838;237.582;0.512117;240;0.05;-0.0215589
41.8022;2.39453;237.605;0.507262;240;0.05;-0.0216439
41.9114;2.37042;237.63;0.503065;240;0.05;-0.0210196
42.0261;2.34525;237.655;0.48819;240;0.05;-0.0308593
42.1548;2.31769;237.682;0.482554;240;0.05;-0.030984
42.2737;2.29268;237.707;0.492317;240;0.05;-0.0162188
42.3828;2.2704;237.73;0.476357;240;0.05;-0.0277227
42.5105;2.24513;237.755;0.470849;240;0.05;-0.0281771
42.6111;2.22598;237.774;0.477995;240;0.05;-0.017202
42.7219;2.20572;237.794;0.474165;240;0.05;-0.0169783
42.8291;2.18695;237.813;0.465346;240;0.05;-0.022044
42.9299;2.17017;237.83;0.467228;240;0.05;-0.0168052
43.0344;2.1537;237.846;0.466199;240;0.05;-0.0145419
43.1387;2.13821;237.862;0.463327;240;0.05;-0.0143155
43.2441;2.12367;237.876;0.461856;240;0.05;-0.0128787
43.3506;2.11018;237.89;0.460608;240;0.05;-0.0114285
43.458;2.09756;237.902;0.459594;240;0.05;-0.00991854
43.5667;2.08621;237.914;0.452307;240;0.05;-0.0149356
43.6843;2.07532;237.925;0.458731;240;0.05;-0.00633221
43.7917;2.06674;237.933;0.457323;240;0.05;-0.00602546
43.9087;2.05885;237.941;0.455679;240;0.05;-0.00609168
44.0244;2.05237;237.948;0.454401;240;0.05;-0.00607251
44.1465;2.0472;237.953;0.454559;240;0.05;-0.00487978
