Kp: 0.28
Ki: 0.0553574
Kd: 0.531094
tau: 0.025
limMin: 0.25
limMax: 0.75
intLimMin: 0.25
intLimMax: 0.5
holdSpeed: 245
T: 0.05
setpoint: 245
t;error;speed;out;setpoint
0.164307;-3.78015;248.78;0;245
0.276093;-3.79193;248.792;0;245
0.384308;-3.80267;248.803;0;245
0.495728;-3.81291;248.813;0;245
0.602997;-3.8219;248.822;0;245
0.719208;-3.83031;248.83;0;245
0.826294;-3.83667;248.837;0;245
0.93338;-3.84117;248.841;0;245
1.04117;-3.84329;248.843;0;245
1.14874;-3.84221;248.842;0;245
1.25323;-3.83746;248.837;0;245
1.35706;-3.82838;248.828;0;245
1.45975;-3.81461;248.815;0;245
1.56277;-3.79533;248.795;0;245
1.66528;-3.77046;248.77;0;245
1.76712;-3.73962;248.74;0;245
1.86938;-3.70216;248.702;0;245
1.97171;-3.658;248.658;0;245
2.09113;-3.59773;248.598;0;245
2.19629;-3.53677;248.537;0;245
2.30527;-3.46581;248.466;0;245
2.40994;-3.39029;248.39;0;245
2.51755;-3.30513;248.305;0;245
2.62119;-3.21616;248.216;0;245
2.72287;-3.12245;248.122;0;245
2.82605;-3.02098;248.021;0;245
2.93475;-2.90735;247.907;0.00751531;245
3.03641;-2.79539;247.795;0.0637202;245
3.16992;-2.64032;247.64;0.340101;245
3.2713;-2.51692;247.517;0.215831;245
3.38858;-2.3683;247.368;0.289104;245
3.49448;-2.22929;247.229;0.385956;245
3.61234;-2.06956;247.07;0.59617;245
3.71414;-1.92758;246.928;0.475787;245
3.81979;-1.77644;246.776;0.573949;245
3.92645;-1.62033;246.62;0.625;245
4.04315;-1.44598;246.446;0.625;245
4.16037;-1.26749;246.267;0.625;245
4.26123;-1.11163;246.112;0.625;245
4.37976;-0.926498;245.926;0.625;245
4.51328;-0.716827;245.717;0.625;245
4.61679;-0.554428;245.554;0.625;245
4.71936;-0.394363;245.394;0.625;245
4.8201;-0.238815;245.239;0.625;245
4.92737;-0.0755005;245.076;0.625;245
5.0434;0.0975037;244.902;0.625;245
5.17551;0.289368;244.711;0.625;245
5.30734;0.474533;244.525;0.625;245
5.42386;0.632553;244.367;0.625;245
5.54102;0.785645;244.214;0.625;245
5.67325;0.950928;244.049;0.625;245
5.7739;1.07104;243.929;0.625;245
5.89606;1.21017;243.79;0.625;245
5.99847;1.32077;243.679;0.625;245
6.11642;1.44112;243.559;0.625;245
6.23898;1.5583;243.442;0.625;245
6.35699;1.66333;243.337;0.625;245
6.48782;1.77068;243.229;0.625;245
6.61588;1.86639;243.134;0.625;245
6.72229;1.93875;243.061;0.625;245
6.87152;2.0303;242.97;0.625;245
6.99136;2.09499;242.905;0.625;245
7.11166;2.1525;242.848;0.625;245
7.21558;2.19626;242.804;0.625;245
7.31754;2.23399;242.766;0.625;245
7.41837;2.2663;242.734;0.625;245
7.52225;2.29437;242.706;0.625;245
7.62549;2.31735;242.683;0.625;245
7.72781;2.33501;242.665;0.625;245
7.83005;2.34793;242.652;0.625;245
7.93521;2.35654;242.643;0.625;245
8.03583;2.36038;242.64;0.625;245
8.15262;2.36;242.64;0.625;245
8.25299;2.35582;242.644;0.625;245
8.35471;2.34839;242.652;0.625;245
8.45651;2.33823;242.662;0.625;245
8.57886;2.32283;242.677;0.625;245
8.6799;2.30797;242.692;0.625;245
8.7822;2.29092;242.709;0.625;245
8.89981;2.26901;242.731;0.625;245
9.00684;2.24658;242.753;0.625;245
9.10876;2.22287;242.777;0.625;245
9.21146;2.19666;242.803;0.625;245
9.31393;2.16789;242.832;0.625;245
9.43433;2.13068;242.869;0.625;245
9.55063;2.09137;242.909;0.625;245
9.66803;2.04846;242.952;0.625;245
9.78485;2.00302;242.997;0.625;245
9.90384;1.95415;243.046;0.625;245
10.007;1.91005;243.09;0.625;245
10.1261;1.85785;243.142;0.625;245
10.228;1.81247;243.188;0.625;245
10.3282;1.76762;243.232;0.625;245
10.4294;1.72241;243.278;0.625;245
10.5465;1.66988;243.33;0.625;245
10.6479;1.62456;243.375;0.625;245
10.7649;1.57193;243.428;0.625;245
10.8669;1.5255;243.475;0.625;245
10.9922;1.46742;243.533;0.62073;245
11.094;1.4192;243.581;0.625;245
11.199;1.36856;243.631;0.610957;245
11.3021;1.31802;243.682;0.600489;245
11.4047;1.26691;243.733;0.580899;245
11.507;1.21536;243.785;0.566712;245
11.6144;1.16042;243.84;0.528591;245
11.7209;1.10536;243.895;0.51247;245
11.827;1.05013;243.95;0.501439;245
11.9297;0.996216;244.004;0.489739;245
12.0318;0.942413;244.058;0.47925;245
12.1346;0.888351;244.112;0.469144;245
12.2437;0.831207;244.169;0.434344;245
12.3509;0.775635;244.224;0.421132;245
12.4584;0.720978;244.279;0.414766;245
12.5708;0.665329;244.335;0.406976;245
12.6827;0.612244;244.388;0.389432;245
12.7879;0.564835;244.435;0.412173;245
12.8969;0.518585;244.481;0.415634;245
13.0121;0.473465;244.527;0.383628;245
13.1197;0.43486;244.565;0.421653;245
13.2303;0.398773;244.601;0.422064;245
13.3348;0.368179;244.632;0.443127;245
13.459;0.336243;244.664;0.446855;245
13.5746;0.310913;244.689;0.460959;245
13.6868;0.290268;244.71;0.473609;245
13.8005;0.273102;244.727;0.491077;245
13.9134;0.259674;244.74;0.507352;245
14.0247;0.249954;244.75;0.521859;245
14.1413;0.24324;244.757;0.537683;245
14.2509;0.240067;244.76;0.553928;245
14.364;0.239624;244.76;0.567947;245
14.4697;0.241592;244.758;0.581067;245
14.5807;0.245789;244.754;0.592705;245
14.6847;0.251266;244.749;0.601529;245
14.7885;0.258286;244.742;0.611295;245
14.8904;0.266312;244.734;0.617515;245
15.0122;0.277145;244.723;0.625;245
15.1145;0.287125;244.713;0.625;245
15.2189;0.297974;244.702;0.625;245
15.3279;0.30954;244.69;0.625;245
15.4343;0.320801;244.679;0.625;245
15.5461;0.332016;244.668;0.625;245
15.6475;0.341217;244.659;0.625;245
15.7505;0.349518;244.65;0.625;245
15.8582;0.356842;244.643;0.625;245
15.9825;0.363297;244.637;0.625;245
16.0973;0.36734;244.633;0.624391;245
16.2287;0.36969;244.63;0.613993;245
16.3587;0.369614;244.63;0.600619;245
16.4743;0.367493;244.633;0.590911;245
16.5898;0.363586;244.636;0.577261;245
16.7064;0.35788;244.642;0.56515;245
16.8209;0.350525;244.649;0.553975;245
16.9366;0.341202;244.659;0.550473;245
17.0406;0.331421;244.669;0.537477;245
17.1442;0.320206;244.68;0.530015;245
17.2458;0.307938;244.692;0.519176;245
17.3475;0.29454;244.705;0.510045;245
17.4633;0.278336;244.722;0.48426;245
17.5948;0.259079;244.741;0.46911;245
17.7137;0.241119;244.759;0.464468;245
17.8149;0.225632;244.774;0.480209;245
17.9314;0.207825;244.792;0.455042;245
18.0331;0.192429;244.808;0.471717;245
18.1361;0.177139;244.823;0.469513;245
18.2381;0.162292;244.838;0.468442;245
18.3414;0.147552;244.852;0.463823;245
18.4467;0.13298;244.867;0.460851;245
18.5538;0.118607;244.881;0.457476;245
18.6589;0.105179;244.895;0.458134;245
18.7623;0.0925293;244.907;0.460396;245
18.8643;0.0806732;244.919;0.46082;245
18.9825;0.0679016;244.932;0.445945;245
19.1067;0.0557404;244.944;0.45618;245
19.209;0.0469971;244.953;0.469374;245
19.3132;0.0394592;244.961;0.473705;245
19.4153;0.0335388;244.966;0.480487;245
19.5181;0.0292511;244.971;0.487561;245
19.6197;0.0266113;244.973;0.495752;245
19.7245;0.0255585;244.974;0.503792;245
19.8282;0.0262299;244.974;0.512962;245
19.9317;0.0285339;244.971;0.522593;245
20.0356;0.0324402;244.968;0.531843;245
20.1384;0.037674;244.962;0.540127;245
20.2415;0.0441284;244.956;0.548579;245
20.3624;0.0528412;244.947;0.557414;245
20.4805;0.0625153;244.937;0.563318;245
20.5833;0.0718231;244.928;0.570179;245
20.7039;0.0837402;244.916;0.582261;245
20.8068;0.0948181;244.905;0.586781;245
20.908;0.10643;244.894;0.592352;245
21.0252;0.120834;244.879;0.61875;245
21.1361;0.134842;244.865;0.616902;245
21.2376;0.147919;244.852;0.611106;245
21.3385;0.160721;244.839;0.612753;245
21.4395;0.173248;244.827;0.614154;245
21.5438;0.185883;244.814;0.617571;245
21.6614;0.199585;244.8;0.619354;245
21.7643;0.211365;244.789;0.620629;245
21.8817;0.224396;244.776;0.625;245
21.9846;0.235428;244.765;0.623001;245
22.0869;0.245697;244.754;0.622143;245
22.1917;0.255142;244.745;0.619986;245
22.2947;0.262711;244.737;0.610593;245
22.3962;0.268219;244.732;0.601228;245
22.5004;0.271515;244.728;0.590587;245
22.6119;0.272339;244.728;0.577616;245
22.7245;0.270493;244.73;0.56411;245
22.8299;0.266663;244.733;0.551948;245
22.9424;0.260803;244.739;0.538649;245
23.0594;0.253357;244.747;0.526197;245
23.1708;0.245316;244.755;0.52727;245
23.2863;0.23671;244.763;0.526542;245
23.4033;0.227829;244.772;0.511964;245
23.5209;0.219299;244.781;0.522738;245
23.6382;0.21106;244.789;0.520873;245
23.77;0.202057;244.798;0.509795;245
23.8853;0.194565;244.805;0.520267;245
24.0176;0.186111;244.814;0.508024;245
24.1338;0.178848;244.821;0.516798;245
24.2507;0.171555;244.828;0.514082;245
24.3515;0.165054;244.835;0.511693;245
24.4687;0.157425;244.843;0.499843;245
24.586;0.149628;244.85;0.496714;245
24.6876;0.142929;244.857;0.504206;245
24.8041;0.135513;244.864;0.494498;245
24.9073;0.129135;244.871;0.502903;245
25.0143;0.122879;244.877;0.501634;245
25.1215;0.117126;244.883;0.505071;245
25.2435;0.111481;244.889;0.499979;245
25.3451;0.107407;244.893;0.508672;245
25.446;0.103928;244.896;0.510945;245
25.5636;0.100677;244.899;0.509829;245
25.6729;0.0984802;244.902;0.51634;245
25.7802;0.0968781;244.903;0.519442;245
25.8895;0.0957031;244.904;0.521556;245
25.9969;0.0949402;244.905;0.523609;245
26.1017;0.0946198;244.905;0.525782;245
26.2351;0.0944366;244.906;0.525713;245
26.3505;0.0945587;244.905;0.527771;245
26.4843;0.0950317;244.905;0.529155;245
26.6171;0.0961456;244.904;0.533314;245
26.7321;0.0979462;244.902;0.538809;245
26.8492;0.100571;244.899;0.54432;245
26.9495;0.103638;244.896;0.546198;245
27.0504;0.107391;244.893;0.55081;245
27.1529;0.11174;244.888;0.554622;245
27.273;0.117401;244.883;0.564548;245
27.3895;0.12323;244.877;0.563032;245
27.5043;0.129166;244.871;0.571161;245
27.6366;0.135971;244.864;0.574074;245
27.7375;0.141083;244.859;0.565763;245
27.8688;0.147507;244.852;0.57497;245
27.9846;0.152817;244.847;0.567114;245
28.1006;0.157822;244.842;0.566924;245
28.2296;0.163101;244.837;0.573377;245
28.3595;0.167938;244.832;0.572437;245
28.4903;0.172211;244.828;0.570472;245
28.6216;0.175964;244.824;0.569005;245
28.7375;0.179016;244.821;0.564065;245
28.8517;0.181656;244.818;0.562865;245
28.9708;0.183975;244.816;0.564756;245
29.0734;0.185684;244.814;0.560431;245
29.1741;0.187088;244.813;0.560163;245
29.2946;0.188431;244.812;0.560378;245
29.4235;0.189346;244.811;0.557677;245
29.5395;0.190109;244.81;0.55765;245
29.6678;0.19072;244.809;0.556154;245
29.7835;0.191193;244.809;0.55549;245
29.9152;0.191437;244.809;0.554426;245
30.0457;0.191406;244.809;0.553327;245
30.1742;0.191177;244.809;0.551899;245
30.3065;0.190491;244.81;0.54979;245
30.4234;0.189728;244.81;0.549551;245
30.5507;0.188873;244.811;0.54836;245
30.6809;0.187988;244.812;0.547819;245
30.8095;0.187134;244.813;0.54823;245
30.9377;0.186584;244.813;0.549061;245
31.0548;0.186401;244.814;0.551538;245
31.1828;0.18634;244.814;0.551595;245
31.3018;0.186493;244.814;0.553141;245
31.4173;0.186951;244.813;0.555372;245
31.5485;0.187378;244.813;0.554011;245
31.6779;0.187378;244.813;0.551992;245
31.7799;0.186844;244.813;0.549082;245
31.9135;0.185394;244.815;0.542927;245
32.0139;0.183624;244.816;0.541046;245
32.1147;0.181274;244.819;0.537638;245
32.2464;0.177521;244.822;0.529062;245
32.3602;0.173798;244.826;0.53034;245
32.4622;0.170242;244.83;0.528707;245
32.5655;0.16629;244.834;0.525026;245
32.6687;0.162231;244.838;0.523554;245
32.7744;0.157852;244.842;0.521019;245
32.8777;0.153656;244.846;0.52066;245
32.986;0.148956;244.851;0.515753;245
33.1103;0.14357;244.856;0.511689;245
33.2257;0.138275;244.862;0.514358;245
33.3448;0.132538;244.867;0.504359;245
33.4594;0.126801;244.873;0.502328;245
33.5886;0.120163;244.88;0.497751;245
33.7163;0.113525;244.886;0.49634;245
33.8449;0.106659;244.893;0.494172;245
33.947;0.101151;244.899;0.498358;245
34.0496;0.0955505;244.904;0.49725;245
34.1703;0.0891113;244.911;0.487906;245
34.2708;0.0838623;244.916;0.495604;245
34.3868;0.0778198;244.922;0.494218;245
34.5016;0.0719452;244.928;0.486334;245
34.6316;0.0657349;244.934;0.485839;245
34.7602;0.0598145;244.94;0.485409;245
34.8878;0.0546875;244.945;0.489284;245
35.0176;0.0506439;244.949;0.493549;245
35.1477;0.0480347;244.952;0.50166;245
35.2678;0.0469666;244.953;0.510088;245
35.384;0.0473633;244.953;0.516688;245
35.5164;0.049118;244.951;0.523968;245
35.6467;0.052124;244.948;0.531624;245
35.7635;0.0557404;244.944;0.53298;245
35.879;0.0599976;244.94;0.542233;245
36.0079;0.0656128;244.934;0.548376;245
36.1378;0.0720062;244.928;0.555212;245
36.2696;0.0793304;244.921;0.561755;245
36.3844;0.0863495;244.914;0.565793;245
36.5152;0.0952301;244.905;0.573978;245
36.6458;0.10498;244.895;0.581038;245
36.7758;0.11528;244.885;0.587603;245
36.8807;0.124039;244.876;0.582016;245
36.985;0.132858;244.867;0.583082;245
37.1004;0.142715;244.857;0.597232;245
37.2309;0.153687;244.846;0.600975;245
37.3338;0.162277;244.838;0.590503;245
37.4642;0.172806;244.827;0.603497;245
37.5677;0.180801;244.819;0.593402;245
37.674;0.18866;244.811;0.593875;245
37.778;0.195953;244.804;0.592657;245
37.8831;0.202927;244.797;0.592515;245
37.991;0.209488;244.791;0.591959;245
38.0961;0.21524;244.785;0.589658;245
38.2027;0.22052;244.779;0.588732;245
38.3092;0.224808;244.775;0.583938;245
38.4147;0.227982;244.772;0.578821;245
38.5239;0.229736;244.77;0.572588;245
38.629;0.229919;244.77;0.563649;245
38.7368;0.228455;244.772;0.554553;245
38.843;0.225372;244.775;0.544618;245
38.9718;0.219574;244.78;0.528522;245
39.0723;0.213501;244.786;0.52607;245
39.2038;0.203796;244.796;0.504399;245
39.3078;0.195053;244.805;0.50526;245
39.4101;0.18576;244.814;0.50258;245
39.5267;0.174591;244.825;0.497146;245
39.6435;0.163239;244.837;0.480264;245
39.774;0.150223;244.85;0.472699;245
39.9047;0.137085;244.863;0.468196;245
40.0361;0.123886;244.876;0.463813;245
40.1655;0.110733;244.889;0.461758;245
40.2944;0.0977325;244.902;0.45844;245
40.4215;0.0849762;244.915;0.45541;245
40.5388;0.0734711;244.927;0.466286;245
40.6408;0.0637665;244.936;0.466954;245
40.7451;0.0542603;244.946;0.465096;245
40.8472;0.0454865;244.955;0.466854;245
40.9532;0.0369415;244.963;0.466859;245
41.0707;0.0283203;244.972;0.45891;245
41.1867;0.020752;244.979;0.462634;245
41.3154;0.0134888;244.987;0.466124;245
41.4205;0.00840759;244.992;0.475905;245
41.5492;0.00334167;244.997;0.475659;245
41.6786;-0.000717163;245.001;0.478928;245
41.8066;-0.00361633;245.004;0.484847;245
41.935;-0.00541687;245.005;0.489052;245
42.0642;-0.00601196;245.006;0.496232;245
42.1949;-0.00537109;245.005;0.503146;245
42.3085;-0.00350952;245.004;0.510622;245
42.4107;-0.00106812;245.001;0.513283;245
42.5196;0.00259399;244.997;0.522008;245
42.6493;0.00840759;244.992;0.534599;245
42.7628;0.0147247;244.985;0.536339;245
42.8777;0.0220184;244.978;0.541526;245
43.0089;0.0313416;244.969;0.558463;245
43.1237;0.0400085;244.96;0.561879;245
43.2527;0.0500946;244.95;0.567853;245
43.3824;0.060379;244.94;0.573288;245
43.5071;0.070282;244.93;0.564732;245
43.6191;0.0789032;244.921;0.562626;245
43.7497;0.088623;244.911;0.575691;245
43.8794;0.0978546;244.902;0.575779;245
43.9979;0.105804;244.894;0.565597;245
44.1123;0.112885;244.887;0.571777;245
44.2425;0.119904;244.88;0.569923;245
44.3726;0.125885;244.874;0.565611;245
44.5008;0.130432;244.87;0.559156;245
44.6299;0.13356;244.866;0.552436;245
44.7589;0.134796;244.865;0.542036;245
44.8759;0.134171;244.866;0.532574;245
44.9928;0.132004;244.868;0.525299;245
45.1116;0.128006;244.872;0.511438;245
45.2278;0.122635;244.877;0.501794;245
45.3455;0.115906;244.884;0.500517;245
45.4515;0.109024;244.891;0.49406;245
45.5674;0.100876;244.899;0.480215;245
45.6855;0.0921936;244.908;0.485392;245
45.8029;0.0833282;244.917;0.482259;245
45.9187;0.0745087;244.925;0.469484;245
46.0192;0.0667419;244.933;0.477359;245
46.1499;0.0565033;244.943;0.462476;245
46.2778;0.0466309;244.953;0.460424;245
46.4069;0.0364075;244.964;0.457732;245
46.5359;0.0261993;244.974;0.45383;245
46.6642;0.0160828;244.984;0.450355;245
46.7807;0.00700378;244.993;0.449511;245
46.9104;-0.00270081;245.003;0.449067;245
47.0385;-0.0116119;245.012;0.44945;245
47.1675;-0.0199432;245.02;0.450574;245
47.2975;-0.0274811;245.027;0.452852;245
47.4125;-0.0332794;245.033;0.463648;245
47.5276;-0.0383301;245.038;0.460632;245
47.6553;-0.0428009;245.043;0.464216;245
47.7868;-0.0462036;245.046;0.468464;245
47.9043;-0.0481262;245.048;0.476658;245
48.0228;-0.0494537;245.049;0.478941;245
48.1247;-0.0500488;245.05;0.481265;245
48.2263;-0.0503845;245.05;0.482506;245
48.342;-0.0501404;245.05;0.484492;245
48.4704;-0.0495148;245.05;0.487116;245
48.6004;-0.0485687;245.049;0.487821;245
48.7297;-0.0474243;245.047;0.488663;245
48.8573;-0.046051;245.046;0.490241;245
48.986;-0.0444946;245.044;0.490322;245
49.1139;-0.0430298;245.043;0.490829;245
49.2435;-0.0416412;245.042;0.490338;245
49.3729;-0.0401611;245.04;0.491174;245
49.4921;-0.039032;245.039;0.488212;245
49.6194;-0.0375671;245.038;0.491195;245
49.7463;-0.0359192;245.036;0.492399;245
49.8742;-0.0337982;245.034;0.49542;245
50.0023;-0.0305023;245.031;0.503354;245
50.1313;-0.0256805;245.026;0.513083;245
50.2592;-0.0195618;245.02;0.521381;245
50.387;-0.0122986;245.012;0.528707;245
50.5142;-0.00454712;245.005;0.53357;245
50.6306;0.00254822;244.997;0.534008;245
50.7578;0.0101624;244.99;0.535461;245
50.887;0.0174255;244.983;0.535569;245
51.0026;0.0238953;244.976;0.529191;245
51.1313;0.0310364;244.969;0.540029;245
51.2585;0.0382538;244.962;0.542393;245
51.3864;0.0457153;244.954;0.546059;245
51.506;0.0528564;244.947;0.545196;245
51.6386;0.0610809;244.939;0.555036;245
51.7715;0.0695801;244.93;0.55909;245
51.884;0.0770721;244.923;0.553471;245
51.988;0.084259;244.916;0.556579;245
52.1089;0.092453;244.908;0.567777;245
52.2393;0.100754;244.899;0.567599;245
52.3692;0.107895;244.892;0.56489;245
52.5009;0.113327;244.887;0.557718;245
52.6165;0.116699;244.883;0.545635;245
52.7456;0.119019;244.881;0.54369;245
52.8779;0.120056;244.88;0.538148;245
53.0071;0.120087;244.88;0.532754;245
53.1381;0.119476;244.881;0.529539;245
53.2555;0.118439;244.882;0.526944;245
53.3869;0.117081;244.883;0.525405;245
53.5016;0.115707;244.884;0.524141;245
53.6231;0.114014;244.886;0.522017;245
53.7523;0.111923;244.888;0.51995;245
53.8811;0.10939;244.891;0.516962;245
54.0125;0.105972;244.894;0.511725;245
54.1427;0.102142;244.898;0.50703;245
54.2705;0.0979156;244.902;0.504792;245
54.3999;0.0931854;244.907;0.501011;245
54.5293;0.0882721;244.912;0.498762;245
54.6574;0.0834198;244.917;0.497337;245
54.7892;0.078476;244.922;0.495841;245
54.8898;0.0747986;244.925;0.501494;245
55.0208;0.0700378;244.93;0.494672;245
55.1507;0.0657043;244.934;0.495476;245
55.2792;0.0615234;244.938;0.495885;245
55.4067;0.0579834;244.942;0.498277;245
55.5272;0.0548706;244.945;0.500294;245
55.6567;0.0519714;244.948;0.500047;245
55.7838;0.0496826;244.95;0.502088;245
55.912;0.0479126;244.952;0.504224;245
56.0415;0.0462799;244.954;0.504094;245
56.1689;0.0450745;244.955;0.506624;245
56.2961;0.044342;244.956;0.508496;245
56.4225;0.0437317;244.956;0.509498;245
56.5502;0.0435486;244.956;0.511452;245
56.6772;0.0435181;244.956;0.512395;245
56.8029;0.0437164;244.956;0.513596;245
56.9294;0.0443268;244.956;0.516128;245
57.0604;0.0452728;244.955;0.517798;245
57.1756;0.0462799;244.954;0.516854;245
57.3042;0.0478821;244.952;0.521653;245
57.4301;0.0497131;244.95;0.524126;245
57.5445;0.0514374;244.949;0.523004;245
57.6711;0.0533905;244.947;0.525808;245
57.7959;0.0551605;244.945;0.524606;245
57.9232;0.0566864;244.943;0.524112;245
58.0514;0.0579834;244.942;0.523333;245
58.1644;0.0587769;244.941;0.521421;245
58.2906;0.0595093;244.94;0.520045;245
58.4154;0.0601196;244.94;0.519563;245
58.5423;0.0605164;244.939;0.519432;245
58.6462;0.0606384;244.939;0.516998;245
58.7616;0.0605774;244.939;0.516394;245
58.8823;0.0603943;244.94;0.516172;245
58.9876;0.0601807;244.94;0.515257;245
59.1047;0.0596924;244.94;0.513648;245
59.2323;0.05896;244.941;0.512259;245
59.3601;0.0578766;244.942;0.510921;245
59.4843;0.0567474;244.943;0.509771;245
59.6143;0.0553284;244.945;0.507665;245
59.7426;0.0538635;244.946;0.506814;245
59.8673;0.0521851;244.948;0.506106;245
59.9897;0.0506592;244.949;0.506339;245
60.1141;0.0489807;244.951;0.505198;245
60.2353;0.047348;244.953;0.504789;245
60.3572;0.0458069;244.954;0.504973;245
60.48;0.0442352;244.956;0.504374;245
60.6027;0.0426788;244.957;0.503687;245
60.7268;0.0412292;244.959;0.504034;245
60.8506;0.0398254;244.96;0.50343;245
60.9745;0.0385284;244.961;0.504602;245
61.0997;0.0374908;244.963;0.505232;245
61.2263;0.0366058;244.963;0.505289;245
61.3515;0.0357056;244.964;0.505404;245
61.4742;0.0351562;244.965;0.507173;245
61.5932;0.0349121;244.965;0.508473;245
61.7167;0.034668;244.965;0.507872;245
61.8385;0.0346375;244.965;0.509914;245
