Airframe: Cessna_CitationX
Kp: 0.24
Ki: 0.2
Kd: 0.15
tau: 0.03
limMin: 0.15
limMax: 0.9
intLimMin: 0.05
intLimMax: 0.3
holdSpeed: 240
T: 0.03
setpoint: 240
t;error;speed;out;setpoint;Int;Diff
0.158936;38.1756;201.824;0.9;240;0.3;-5.59783
0.292969;38.3989;201.601;0.9;240;0.3;0.123148
0.422119;38.6088;201.391;0.9;240;0.3;0.129271
0.523438;38.7705;201.229;0.9;240;0.3;0.133528
0.625732;38.9317;201.068;0.9;240;0.3;0.132952
0.726562;39.0881;200.912;0.9;240;0.3;0.133389
0.826904;39.2419;200.758;0.9;240;0.3;0.12935
0.929443;39.3972;200.603;0.9;240;0.3;0.131261
1.03247;39.5513;200.449;0.9;240;0.3;0.127774
1.13477;39.7028;200.297;0.9;240;0.3;0.124737
1.2373;39.8531;200.147;0.9;240;0.3;0.129922
1.33911;40.0007;199.999;0.9;240;0.3;0.113427
1.43945;40.1446;199.855;0.9;240;0.3;0.117893
1.54517;40.2947;199.705;0.9;240;0.3;0.116793
1.67407;40.4752;199.525;0.9;240;0.3;0.111801
1.7749;40.6147;199.385;0.9;240;0.3;0.11329
1.90112;40.7865;199.214;0.9;240;0.3;0.104311
2.02856;40.9569;199.043;0.9;240;0.3;0.107615
2.12939;41.089;198.911;0.9;240;0.3;0.107098
2.23071;41.2196;198.78;0.9;240;0.3;0.108597
2.33154;41.3469;198.653;0.9;240;0.3;0.103553
2.46265;41.5082;198.492;0.9;240;0.3;0.0957204
2.58862;41.6579;198.342;0.9;240;0.3;0.0875579
2.71997;41.8083;198.192;0.9;240;0.3;0.0925466
2.84521;41.9456;198.054;0.9;240;0.3;0.0916898
2.94751;42.053;197.947;0.9;240;0.3;0.0910306
3.04785;42.1536;197.846;0.9;240;0.3;0.0833197
3.15039;42.2517;197.748;0.9;240;0.3;0.079039
3.28394;42.3708;197.629;0.9;240;0.3;0.0737122
3.38428;42.4538;197.546;0.9;240;0.3;0.0683344
3.48608;42.532;197.468;0.9;240;0.3;0.0625451
3.58789;42.6034;197.397;0.9;240;0.3;0.056344
3.68823;42.6669;197.333;0.9;240;0.3;0.0496384
3.78857;42.7233;197.277;0.9;240;0.3;0.0416762
3.91724;42.7844;197.216;0.9;240;0.3;0.033178
4.01782;42.823;197.177;0.9;240;0.3;0.0295279
4.12036;42.8537;197.146;0.9;240;0.3;0.0233039
4.2229;42.8751;197.125;0.9;240;0.3;0.0141931
4.3562;42.8884;197.112;0.9;240;0.3;0.00379052
4.45801;42.8872;197.113;0.9;240;0.3;-0.0045953
4.55884;42.8757;197.124;0.9;240;0.3;-0.0130406
4.65894;42.854;197.146;0.9;240;0.3;-0.0210988
4.7627;42.82;197.18;0.9;240;0.3;-0.034455
4.8645;42.7751;197.225;0.9;240;0.3;-0.0408924
4.96533;42.7191;197.281;0.9;240;0.3;-0.0514877
5.06738;42.6504;197.35;0.9;240;0.3;-0.0608761
5.16943;42.5694;197.431;0.9;240;0.3;-0.0685566
5.27759;42.47;197.53;0.9;240;0.3;-0.0847929
5.40747;42.3321;197.668;0.9;240;0.3;-0.0926823
5.50781;42.2124;197.788;0.9;240;0.3;-0.102585
5.60815;42.0808;197.919;0.9;240;0.3;-0.113674
5.71045;41.9356;198.064;0.9;240;0.3;-0.127137
5.8208;41.7666;198.233;0.9;240;0.3;-0.12599
5.92212;41.6003;198.4;0.9;240;0.3;-0.138647
6.02344;41.4244;198.576;0.9;240;0.3;-0.154588
6.12451;41.2399;198.76;0.9;240;0.3;-0.14108
6.25073;40.9971;199.003;0.9;240;0.3;-0.156611
6.37866;40.7387;199.261;0.9;240;0.3;-0.168196
6.50635;40.4698;199.53;0.9;240;0.3;-0.171197
6.63428;40.1899;199.81;0.9;240;0.3;-0.177854
6.76099;39.9034;200.097;0.9;240;0.3;-0.174825
6.89014;39.6037;200.396;0.9;240;0.3;-0.200085
7.01611;39.3047;200.695;0.9;240;0.3;-0.195378
7.11621;39.0625;200.937;0.9;240;0.3;-0.229835
7.24341;38.7501;201.25;0.9;240;0.3;-0.193177
7.37256;38.4287;201.571;0.9;240;0.3;-0.205626
7.50024;38.1074;201.893;0.9;240;0.3;-0.20387
7.62915;37.7801;202.22;0.9;240;0.3;-0.205903
7.75586;37.456;202.544;0.9;240;0.3;-0.204711
7.85669;37.1964;202.804;0.9;240;0.3;-0.205187
7.96045;36.929;203.071;0.9;240;0.3;-0.221185
8.06519;36.6579;203.342;0.9;240;0.3;-0.261259
8.1687;36.3897;203.61;0.9;240;0.3;-0.225635
8.27148;36.1237;203.876;0.9;240;0.3;-0.201156
8.40186;35.7858;204.214;0.9;240;0.3;-0.202213
8.50244;35.526;204.474;0.9;240;0.3;-0.20817
8.60913;35.2501;204.75;0.9;240;0.3;-0.214201
8.71484;34.977;205.023;0.9;240;0.3;-0.229096
8.81909;34.7088;205.291;0.9;240;0.3;-0.216766
8.92456;34.4377;205.562;0.9;240;0.3;-0.231742
9.0332;34.1602;205.84;0.9;240;0.3;-0.218577
9.16187;33.832;206.168;0.9;240;0.3;-0.200541
9.2915;33.5033;206.497;0.9;240;0.3;-0.198465
9.42261;33.1721;206.828;0.9;240;0.3;-0.216957
9.52612;32.9124;207.088;0.9;240;0.3;-0.214553
9.63159;32.6484;207.352;0.9;240;0.3;-0.214308
9.73267;32.3965;207.603;0.9;240;0.3;-0.214607
9.8811;32.0264;207.974;0.9;240;0.3;-0.320843
9.98413;31.7725;208.228;0.9;240;0.3;-0.164518
10.1062;31.4736;208.526;0.9;240;0.3;-0.157337
10.2078;31.2263;208.774;0.9;240;0.3;-0.204209
10.312;30.9734;209.027;0.9;240;0.3;-0.205303
10.4146;30.7258;209.274;0.9;240;0.3;-0.20727
10.519;30.4746;209.525;0.9;240;0.3;-0.214757
10.6221;30.2278;209.772;0.9;240;0.3;-0.206582
10.7246;29.9836;210.016;0.9;240;0.3;-0.196472
10.832;29.729;210.271;0.9;240;0.3;-0.233709
10.9329;29.4905;210.51;0.9;240;0.3;-0.187861
11.0615;29.1883;210.812;0.9;240;0.3;-0.187221
11.1895;28.8889;211.111;0.9;240;0.3;-0.175692
11.3152;28.5962;211.404;0.9;240;0.3;-0.18071
11.4419;28.3027;211.697;0.9;240;0.3;-0.180589
11.5452;28.0647;211.935;0.9;240;0.3;-0.203197
11.6462;27.8322;212.168;0.9;240;0.3;-0.187658
11.7803;27.5247;212.475;0.9;240;0.3;-0.196866
11.885;27.286;212.714;0.9;240;0.3;-0.173052
12.0137;26.9936;213.006;0.9;240;0.3;-0.183832
12.1399;26.7076;213.292;0.9;240;0.3;-0.184077
12.2646;26.4263;213.574;0.9;240;0.3;-0.176549
12.3896;26.1453;213.855;0.9;240;0.3;-0.17197
12.5161;25.8622;214.138;0.9;240;0.3;-0.175449
12.6401;25.5851;214.415;0.9;240;0.3;-0.171065
12.7654;25.3062;214.694;0.9;240;0.3;-0.16439
12.8936;25.0216;214.978;0.9;240;0.3;-0.164841
13.0198;24.7415;215.259;0.9;240;0.3;-0.170827
13.1479;24.4583;215.542;0.9;240;0.3;-0.177754
13.2749;24.1782;215.822;0.9;240;0.3;-0.173723
13.4023;23.898;216.102;0.9;240;0.3;-0.171203
13.5276;23.6226;216.377;0.9;240;0.3;-0.178416
13.6536;23.3463;216.654;0.9;240;0.3;-0.175135
13.781;23.0674;216.933;0.9;240;0.3;-0.177712
13.8826;22.845;217.155;0.9;240;0.3;-0.158911
13.9839;22.6238;217.376;0.9;240;0.3;-0.199069
14.1123;22.3434;217.657;0.9;240;0.3;-0.173413
14.238;22.0693;217.931;0.9;240;0.3;-0.164767
14.3633;21.7964;218.204;0.9;240;0.3;-0.16945
14.4888;21.5238;218.476;0.9;240;0.3;-0.175446
14.6135;21.252;218.748;0.9;240;0.3;-0.170614
14.7456;20.9651;219.035;0.9;240;0.3;-0.174348
14.8723;20.6898;219.31;0.9;240;0.3;-0.17459
14.9954;20.4225;219.578;0.9;240;0.3;-0.170173
15.1235;20.1441;219.856;0.9;240;0.3;-0.178724
15.2537;19.8616;220.138;0.9;240;0.3;-0.162073
15.3811;19.5851;220.415;0.9;240;0.3;-0.188477
15.5088;19.3075;220.692;0.9;240;0.3;-0.173058
15.6345;19.0345;220.966;0.9;240;0.3;-0.169411
15.761;18.7601;221.24;0.9;240;0.3;-0.177361
15.8916;18.4766;221.523;0.9;240;0.3;-0.168213
16.0247;18.1872;221.813;0.9;240;0.3;-0.19244
16.156;17.9019;222.098;0.9;240;0.3;-0.167411
16.282;17.628;222.372;0.9;240;0.3;-0.171873
16.4197;17.3281;222.672;0.9;240;0.3;-0.260185
16.5486;17.0482;222.952;0.9;240;0.3;-0.172244
16.6746;16.774;223.226;0.9;240;0.3;-0.167355
16.8013;16.4982;223.502;0.9;240;0.3;-0.171388
16.9026;16.2777;223.722;0.9;240;0.3;-0.178125
17.0295;16.0008;223.999;0.9;240;0.3;-0.178458
17.1572;15.7222;224.278;0.9;240;0.3;-0.172438
17.2852;15.4431;224.557;0.9;240;0.3;-0.180494
17.4121;15.1657;224.834;0.9;240;0.3;-0.176832
17.5398;14.8874;225.113;0.9;240;0.3;-0.170203
17.6663;14.6107;225.389;0.9;240;0.3;-0.168589
17.7937;14.3323;225.668;0.9;240;0.3;-0.178954
17.8938;14.113;225.887;0.9;240;0.3;-0.179557
18.0188;13.8397;226.16;0.9;240;0.3;-0.170529
18.1467;13.5599;226.44;0.9;240;0.3;-0.177075
18.2773;13.2737;226.726;0.9;240;0.3;-0.179383
18.4053;12.9932;227.007;0.9;240;0.3;-0.176106
18.5339;12.7114;227.289;0.9;240;0.3;-0.170133
18.6587;12.4374;227.563;0.9;240;0.3;-0.173815
18.7866;12.1571;227.843;0.9;240;0.3;-0.170004
18.9128;11.8801;228.12;0.9;240;0.3;-0.174712
19.0408;11.5987;228.401;0.9;240;0.3;-0.169474
19.1426;11.3748;228.625;0.9;240;0.3;-0.192993
19.2446;11.151;228.849;0.9;240;0.3;-0.190053
19.3787;10.8563;229.144;0.9;240;0.3;-0.190398
19.4812;10.6307;229.369;0.9;240;0.3;-0.196233
19.5835;10.406;229.594;0.9;240;0.3;-0.180027
19.688;10.1762;229.824;0.9;240;0.3;-0.191365
19.7913;9.94923;230.051;0.9;240;0.3;-0.185376
19.9001;9.70953;230.29;0.9;240;0.3;-0.200776
20.0256;9.4337;230.566;0.9;240;0.3;-0.165184
20.1265;9.21187;230.788;0.9;240;0.3;-0.197962
20.2295;8.98528;231.015;0.9;240;0.3;-0.183091
20.3311;8.76167;231.238;0.9;240;0.3;-0.183236
20.4314;8.54063;231.459;0.9;240;0.3;-0.180293
20.5344;8.31416;231.686;0.9;240;0.3;-0.179637
20.6348;8.09398;231.906;0.9;240;0.3;-0.186513
20.7688;7.79933;232.201;0.9;240;0.3;-0.19023
20.873;7.57008;232.43;0.9;240;0.3;-0.18899
21.0027;7.28513;232.715;0.9;240;0.3;-0.182874
21.1057;7.05867;232.941;0.9;240;0.3;-0.196721
21.2073;6.83583;233.164;0.9;240;0.3;-0.180535
21.3079;6.61496;233.385;0.9;240;0.3;-0.187629
21.4087;6.39369;233.606;0.9;240;0.3;-0.188185
21.5117;6.16751;233.832;0.9;240;0.3;-0.183222
21.6125;5.94627;234.054;0.9;240;0.3;-0.188682
21.7163;5.71852;234.281;0.9;240;0.3;-0.1992
21.8425;5.44176;234.558;0.9;240;0.3;-0.173407
21.9431;5.22151;234.778;0.9;240;0.3;-0.164536
22.0745;4.93373;235.066;0.9;240;0.3;-0.177338
22.1748;4.71382;235.286;0.9;240;0.3;-0.183268
22.2759;4.49289;235.507;0.9;240;0.3;-0.187819
22.406;4.20815;235.792;0.9;240;0.3;-0.191391
22.5073;3.98654;236.013;0.9;240;0.3;-0.189474
22.6392;3.69868;236.301;0.9;240;0.3;-0.18668
22.7402;3.47791;236.522;0.9;240;0.3;-0.185189
22.8408;3.25822;236.742;0.898385;240;0.3;-0.183588
22.9731;2.96948;237.031;0.830405;240;0.3;-0.18227
23.0747;2.748;237.252;0.778702;240;0.3;-0.180818
23.1763;2.52692;237.473;0.723195;240;0.3;-0.183265
23.3093;2.23825;237.762;0.652365;240;0.3;-0.184815
23.4106;2.01878;237.981;0.608554;240;0.3;-0.175954
23.5112;1.80287;238.197;0.550616;240;0.3;-0.182073
23.6465;1.51555;238.484;0.469142;240;0.3;-0.19459
23.7729;1.25159;238.748;0.430121;240;0.3;-0.17026
23.9028;0.987106;239.013;0.35395;240;0.3;-0.182956
24.0037;0.786758;239.213;0.314357;240;0.3;-0.174465
24.1311;0.542206;239.458;0.292213;240;0.3;-0.137916
24.2576;0.309921;239.69;0.230863;240;0.3;-0.143518
24.3838;0.0898895;239.91;0.186145;240;0.3;-0.135429
24.512;-0.120132;240.12;0.15;240;0.299118;-0.126692
24.6394;-0.314499;240.314;0.15;240;0.293548;-0.113038
24.7673;-0.493393;240.493;0.15;240;0.283182;-0.110523
24.8936;-0.65332;240.653;0.15;240;0.268675;-0.0930331
25.02;-0.796646;240.797;0.15;240;0.250304;-0.0820323
25.1477;-0.923508;240.924;0.15;240;0.228305;-0.0730008
25.2725;-1.02997;241.03;0.15;240;0.2039;-0.0593064
25.4053;-1.12442;241.124;0.15;240;0.175246;-0.0530158
25.5054;-1.18288;241.183;0.15;240;0.152135;-0.0446559
25.6067;-1.23157;241.232;0.15;240;0.127657;-0.0370771
25.739;-1.27927;241.279;0.15;240;0.0943971;-0.0258783
25.8413;-1.30446;241.304;0.15;240;0.0679518;-0.0173995
25.9434;-1.31969;241.32;0.15;240;0.05;-0.00957551
26.0664;-1.32576;241.326;0.15;240;0.05;-0.00019631
26.1917;-1.31886;241.319;0.15;240;0.05;0.00770085
26.3169;-1.29967;241.3;0.15;240;0.05;0.0149195
26.4419;-1.26924;241.269;0.15;240;0.05;0.0216125
26.5684;-1.22769;241.228;0.15;240;0.05;0.0292404
26.6965;-1.17551;241.176;0.15;240;0.05;0.030491
26.8286;-1.11179;241.112;0.15;240;0.05;0.0434368
26.929;-1.05742;241.057;0.15;240;0.05;0.0476974
27.0605;-0.978485;240.978;0.15;240;0.05;0.0528561
27.1685;-0.908279;240.908;0.15;240;0.05;0.0680826
27.3018;-0.815201;240.815;0.15;240;0.05;0.0609174
27.4028;-0.740219;240.74;0.15;240;0.05;0.0670561
27.5312;-0.640381;240.64;0.15;240;0.05;0.0616552
27.6538;-0.540527;240.541;0.15;240;0.05;0.0648508
27.7771;-0.43605;240.436;0.15;240;0.05;0.0653159
27.9011;-0.327301;240.327;0.15;240;0.05;0.0660009
28.0032;-0.23558;240.236;0.15;240;0.05;0.0740788
28.1338;-0.115051;240.115;0.15;240;0.05;0.0819079
28.2341;-0.0206604;240.021;0.15;240;0.05;0.0747449
28.3352;0.0756226;239.924;0.15;240;0.0505866;0.0789831
28.468;0.204041;239.796;0.186617;240;0.0542963;0.0833506
28.5686;0.302917;239.697;0.212419;240;0.0593968;0.0803223
28.6704;0.403625;239.596;0.247694;240;0.0665884;0.0842356
28.7974;0.530533;239.469;0.283402;240;0.078445;0.0776287
28.9255;0.659424;239.341;0.339125;240;0.0936948;0.0871683
29.0256;0.76059;239.239;0.372896;240;0.107909;0.0824453
29.126;0.862457;239.138;0.415593;240;0.124197;0.0844064
29.2576;0.996307;239.004;0.471333;240;0.148656;0.083564
29.3911;1.13202;238.868;0.537715;240;0.177079;0.0889511
29.4922;1.23473;238.765;0.572533;240;0.201002;0.0751972
29.6179;1.36145;238.639;0.643852;240;0.233645;0.0834598
29.7417;1.48488;238.515;0.700007;240;0.26888;0.0747558
29.8643;1.60577;238.394;0.760866;240;0.3;0.0754805
29.9946;1.7319;238.268;0.787725;240;0.3;0.0720684
30.1182;1.84859;238.151;0.816165;240;0.3;0.0725045
30.2456;1.96545;238.035;0.845313;240;0.3;0.0736042
30.3464;2.05502;237.945;0.870375;240;0.3;0.0771695
30.447;2.14149;237.859;0.885357;240;0.3;0.071398
30.5474;2.22466;237.775;0.9;240;0.3;0.0688727
30.6514;2.30724;237.693;0.9;240;0.3;0.0575374
30.7808;2.4045;237.596;0.9;240;0.3;0.051724
30.9138;2.49763;237.502;0.9;240;0.3;0.0559991
31.0474;2.58327;237.417;0.9;240;0.3;0.0527217
31.1528;2.64508;237.355;0.9;240;0.3;0.0560454
31.2871;2.71571;237.284;0.9;240;0.3;0.0443535
31.3872;2.76219;237.238;0.9;240;0.3;0.0349978
31.5166;2.81425;237.186;0.9;240;0.3;0.0287187
31.6387;2.85452;237.145;0.9;240;0.3;0.0230585
31.7625;2.88635;237.114;0.9;240;0.3;0.0173258
31.885;2.90869;237.091;0.9;240;0.3;0.0116304
32.0161;2.92232;237.078;0.9;240;0.3;0.00617219
32.1416;2.92545;237.075;0.9;240;0.3;-0.000689501
32.2693;2.91823;237.082;0.9;240;0.3;-0.00754833
32.3694;2.90536;237.095;0.9;240;0.3;-0.0127136
32.5012;2.87862;237.121;0.9;240;0.3;-0.0202134
32.6345;2.84045;237.16;0.9;240;0.3;-0.028121
32.7673;2.79131;237.209;0.9;240;0.3;-0.0338558
32.8992;2.73151;237.268;0.9;240;0.3;-0.0393524
33.0315;2.66086;237.339;0.89148;240;0.3;-0.0471263
33.1643;2.57944;237.421;0.86235;240;0.3;-0.0567146
33.2974;2.48746;237.513;0.83423;240;0.3;-0.0627593
33.4294;2.38647;237.614;0.806843;240;0.3;-0.0659109
33.5608;2.27769;237.722;0.776657;240;0.3;-0.0699899
33.6914;2.16168;237.838;0.745243;240;0.3;-0.0735605
33.7915;2.0685;237.932;0.720912;240;0.3;-0.0755271
33.8945;1.9689;238.031;0.679188;240;0.3;-0.0933486
33.9988;1.86504;238.135;0.64848;240;0.3;-0.0991289
34.123;1.73766;238.262;0.636672;240;0.3;-0.0803649
34.2556;1.59792;238.402;0.593393;240;0.3;-0.0901065
34.356;1.49071;238.509;0.561719;240;0.3;-0.0960509
34.4807;1.35593;238.644;0.54184;240;0.3;-0.0835828
34.6047;1.22124;238.779;0.511201;240;0.3;-0.0818961
34.7261;1.08942;238.911;0.476204;240;0.3;-0.0852562
34.8486;0.957474;239.043;0.447882;240;0.3;-0.081912
34.97;0.82843;239.172;0.415739;240;0.3;-0.0830844
35.0774;0.716278;239.284;0.366134;240;0.3;-0.105772
35.2041;0.587326;239.413;0.366822;240;0.3;-0.0741365
35.3298;0.463623;239.536;0.335848;240;0.3;-0.0754218
35.4526;0.347717;239.652;0.313051;240;0.3;-0.0704009
35.5769;0.236298;239.764;0.286918;240;0.3;-0.0697938
35.7009;0.131317;239.869;0.263818;240;0.3;-0.0676984
35.825;0.033371;239.967;0.249503;240;0.3;-0.0585065
35.9258;-0.040741;240.041;0.213886;240;0.299783;-0.0761185
36.0535;-0.127014;240.127;0.220804;240;0.297623;-0.0463359
36.176;-0.201447;240.201;0.201647;240;0.293581;-0.0435871
36.2964;-0.26622;240.266;0.185953;240;0.287937;-0.0380917
36.417;-0.322632;240.323;0.171007;240;0.28082;-0.0323817
36.543;-0.372223;240.372;0.15414;240;0.272048;-0.0285745
36.6726;-0.413208;240.413;0.15;240;0.261844;-0.0222442
36.8027;-0.443787;240.444;0.15;240;0.250671;-0.0161208
36.9321;-0.464005;240.464;0.15;240;0.238904;-0.00959991
37.062;-0.473953;240.474;0.15;240;0.226701;-0.00346465
37.1948;-0.47348;240.473;0.15;240;0.214096;0.0032027
37.3259;-0.46257;240.463;0.15;240;0.201804;0.00950493
37.4575;-0.44165;240.442;0.15;240;0.189884;0.016736
37.5874;-0.411499;240.411;0.15;240;0.178784;0.0214191
37.7168;-0.372208;240.372;0.15;240;0.168624;0.0276084
37.8486;-0.323257;240.323;0.15;240;0.159437;0.0326307
37.9785;-0.266647;240.267;0.15;240;0.151758;0.0387963
38.0833;-0.215134;240.215;0.15;240;0.146705;0.0405692
38.2122;-0.144974;240.145;0.151399;240;0.142048;0.0441444
38.3425;-0.0668335;240.067;0.173229;240;0.139273;0.0499955
38.4734;0.0181732;239.982;0.196125;240;0.138623;0.0531404
38.6033;0.108917;239.891;0.224603;240;0.140263;0.0582001
38.7341;0.206284;239.794;0.257527;240;0.144377;0.0636424
38.8638;0.308044;239.692;0.291879;240;0.151035;0.0669134
38.9988;0.419113;239.581;0.345231;240;0.16084;0.0838035
39.0989;0.504837;239.495;0.360739;240;0.170084;0.0694944
39.2285;0.618866;239.381;0.402299;240;0.184643;0.0691283
39.3591;0.737518;239.262;0.452114;240;0.202353;0.0727575
39.4592;0.830505;239.169;0.496257;240;0.218046;0.0788901
39.5898;0.954224;239.046;0.547736;240;0.241351;0.0773707
39.7207;1.08049;238.92;0.605904;240;0.267974;0.0786123
39.8516;1.20773;238.792;0.668386;240;0.297914;0.0806159
39.9832;1.33641;238.664;0.701744;240;0.3;0.0810052
40.0884;1.43941;238.561;0.709866;240;0.3;0.064408
40.2144;1.56212;238.438;0.746449;240;0.3;0.0715405
40.3403;1.68292;238.317;0.77265;240;0.3;0.068749
40.4617;1.79727;238.203;0.802257;240;0.3;0.0709115
40.5845;1.91034;238.09;0.829627;240;0.3;0.0711451
40.7053;2.01846;237.982;0.851215;240;0.3;0.0667835
40.8269;2.12338;237.877;0.873959;240;0.3;0.064347
40.927;2.20653;237.793;0.883939;240;0.3;0.0543727
41.0488;2.30327;237.697;0.9;240;0.3;0.059512
41.1714;2.39543;237.605;0.9;240;0.3;0.0543627
41.2949;2.48271;237.517;0.9;240;0.3;0.0531008
41.3999;2.5519;237.448;0.9;240;0.3;0.055796
41.5317;2.63184;237.368;0.9;240;0.3;0.047104
41.6323;2.68726;237.313;0.9;240;0.3;0.0426276
41.7625;2.75142;237.249;0.9;240;0.3;0.0382449
41.8926;2.80655;237.193;0.9;240;0.3;0.032475
42.0227;2.85217;237.148;0.9;240;0.3;0.0239686
42.1506;2.88728;237.113;0.9;240;0.3;0.0174525
42.2749;2.91205;237.088;0.9;240;0.3;0.0136506
42.3772;2.92531;237.075;0.9;240;0.3;0.00849554
42.4792;2.93208;237.068;0.9;240;0.3;0.00352904
42.5793;2.93248;237.068;0.9;240;0.3;-0.00184756
42.7104;2.92334;237.077;0.9;240;0.3;-0.00846174
42.8413;2.90329;237.097;0.9;240;0.3;-0.0153082
42.9727;2.87244;237.128;0.9;240;0.3;-0.0213489
43.1035;2.83092;237.169;0.9;240;0.3;-0.0284489
43.2085;2.78999;237.21;0.9;240;0.3;-0.0336435
43.3401;2.72934;237.271;0.9;240;0.3;-0.0402039
43.4722;2.65773;237.342;0.886475;240;0.3;-0.0513807
43.604;2.5762;237.424;0.864921;240;0.3;-0.0533675
43.7351;2.48544;237.515;0.837161;240;0.3;-0.0593458
43.8682;2.38388;237.616;0.805887;240;0.3;-0.0662442
43.9988;2.27589;237.724;0.771302;240;0.3;-0.0749128
44.1277;2.16225;237.838;0.749815;240;0.3;-0.0691245
44.2505;2.04845;237.952;0.72103;240;0.3;-0.0705969
44.3711;1.93214;238.068;0.691329;240;0.3;-0.0723853
44.4954;1.80841;238.192;0.653383;240;0.3;-0.0806355
44.6169;1.6842;238.316;0.628196;240;0.3;-0.0760131
44.7385;1.55772;238.442;0.593543;240;0.3;-0.0803107
44.8618;1.4278;238.572;0.555233;240;0.3;-0.0874376
44.9917;1.29007;238.71;0.5246;240;0.3;-0.0850166
45.1228;1.15117;238.849;0.490934;240;0.3;-0.0853468
45.2229;1.04601;238.954;0.463845;240;0.3;-0.0871963
45.353;0.910767;239.089;0.436551;240;0.3;-0.0820325
45.4836;0.77803;239.222;0.406348;240;0.3;-0.0803791
45.614;0.649384;239.351;0.377108;240;0.3;-0.0787437
45.7163;0.55162;239.448;0.356214;240;0.3;-0.0761754
45.8372;0.440735;239.559;0.337262;240;0.3;-0.0685147
45.9409;0.350006;239.65;0.317698;240;0.3;-0.0663035
46.0789;0.235794;239.764;0.275274;240;0.3;-0.081317
46.2063;0.137924;239.862;0.274007;240;0.3;-0.0590949
46.3298;0.0504456;239.95;0.261015;240;0.3;-0.0510923
46.4631;-0.0349884;240.035;0.227091;240;0.299816;-0.0643279
46.5632;-0.0928802;240.093;0.229016;240;0.298529;-0.0472216
46.6926;-0.159637;240.16;0.21688;240;0.295243;-0.0400495
46.822;-0.216614;240.217;0.208789;240;0.290355;-0.0295787
46.9478;-0.262604;240.263;0.194237;240;0.284311;-0.0270494
47.0713;-0.298721;240.299;0.184739;240;0.277359;-0.0209271
47.1777;-0.32251;240.323;0.169961;240;0.270736;-0.0233727
47.302;-0.341812;240.342;0.170974;240;0.262463;-0.009454
47.4285;-0.352173;240.352;0.165264;240;0.253668;-0.00388311
47.5557;-0.353195;240.353;0.161474;240;0.244678;0.00156341
47.6821;-0.345062;240.345;0.160311;240;0.23583;0.00729584
47.8064;-0.328369;240.328;0.161541;240;0.227445;0.0129039
47.9348;-0.302307;240.302;0.167393;240;0.219328;0.0206186
48.0625;-0.267853;240.268;0.172274;240;0.212032;0.0245268
