Kp: 1
Ki: 0
Kd: 0
tau: 0.025
limMin: 0.25
limMax: 0.75
intLimMin: 0.25
intLimMax: 0.5
holdSpeed: 245
T: 0.05
setpoint: 245
t;error;speed;out;setpoint
0.15918;18.7139;226.286;0.95;245
0.268066;18.7195;226.281;0.95;245
0.371094;18.7252;226.275;0.95;245
0.479492;18.7317;226.268;0.95;245
0.582031;18.7378;226.262;0.95;245
0.688965;18.7431;226.257;0.95;245
0.791504;18.7467;226.253;0.95;245
0.894531;18.7477;226.252;0.95;245
0.998535;18.7453;226.255;0.95;245
1.10449;18.7382;226.262;0.95;245
1.2085;18.726;226.274;0.95;245
1.31787;18.7064;226.294;0.95;245
1.42432;18.6797;226.32;0.95;245
1.53125;18.6448;226.355;0.95;245
1.63623;18.6019;226.398;0.95;245
1.7417;18.549;226.451;0.95;245
1.84961;18.4843;226.516;0.95;245
1.96289;18.4044;226.596;0.95;245
2.06836;18.3187;226.681;0.95;245
2.17871;18.2159;226.784;0.95;245
2.27881;18.112;226.888;0.95;245
2.38818;17.9858;227.014;0.95;245
2.50195;17.8403;227.16;0.95;245
2.60889;17.6914;227.309;0.95;245
2.71533;17.5295;227.471;0.95;245
2.81982;17.3601;227.64;0.95;245
2.92627;17.1741;227.826;0.95;245
3.02979;16.9825;228.018;0.95;245
3.13721;16.7718;228.228;0.95;245
3.24072;16.5567;228.443;0.95;245
3.34619;16.3275;228.673;0.95;245
3.44727;16.0971;228.903;0.95;245
3.5498;15.8533;229.147;0.95;245
3.65479;15.5944;229.406;0.95;245
3.75977;15.3251;229.675;0.95;245
3.86377;15.0484;229.952;0.95;245
3.96484;14.7722;230.228;0.75;245
4.06738;14.4825;230.517;0.75;245
4.18066;14.1517;230.848;0.75;245
4.28564;13.8389;231.161;0.75;245
4.39062;13.5175;231.482;0.75;245
4.49365;13.1984;231.802;0.75;245
4.6001;12.8636;232.136;0.75;245
4.70801;12.5229;232.477;0.75;245
4.81348;12.1917;232.808;0.75;245
4.91797;11.8655;233.134;0.75;245
5.02881;11.5235;233.477;0.75;245
5.13672;11.1971;233.803;0.75;245
5.24463;10.8772;234.123;0.75;245
5.35059;10.5729;234.427;0.75;245
5.4541;10.2827;234.717;0.75;245
5.55664;10.004;234.996;0.75;245
5.6665;9.71561;235.284;0.75;245
5.77002;9.4537;235.546;0.75;245
5.87598;9.19473;235.805;0.75;245
5.979;8.9512;236.049;0.75;245
6.08301;8.71515;236.285;0.75;245
6.18799;8.48555;236.514;0.75;245
6.29443;8.26244;236.738;0.75;245
6.39795;8.05316;236.947;0.75;245
6.50293;7.84966;237.15;0.75;245
6.60889;7.65186;237.348;0.75;245
6.71484;7.46236;237.538;0.75;245
6.81982;7.28175;237.718;0.75;245
6.92432;7.10876;237.891;0.75;245
7.02539;6.94716;238.053;0.75;245
7.12988;6.78638;238.214;0.75;245
7.2417;6.62096;238.379;0.75;245
7.34961;6.4673;238.533;0.75;245
7.45605;6.32089;238.679;0.75;245
7.56055;6.18169;238.818;0.75;245
7.66895;6.0425;238.958;0.75;245
7.78223;5.90146;239.099;0.75;245
7.88281;5.78029;239.22;0.75;245
7.9917;5.65292;239.347;0.75;245
8.09814;5.53192;239.468;0.75;245
8.20508;5.4136;239.586;0.75;245
8.31299;5.29723;239.703;0.75;245
8.42236;5.18216;239.818;0.75;245
8.52539;5.07654;239.923;0.75;245
8.63135;4.97;240.03;0.75;245
8.73877;4.86414;240.136;0.625;245
8.85547;4.75151;240.248;0.625;245
8.9624;4.65025;240.35;0.625;245
9.07031;4.54955;240.45;0.625;245
9.17871;4.45093;240.549;0.625;245
9.29102;4.35014;240.65;0.625;245
9.40381;4.25151;240.748;0.625;245
9.51367;4.15749;240.843;0.625;245
9.62305;4.06578;240.934;0.625;245
9.73193;3.97688;241.023;0.625;245
9.8418;3.88989;241.11;0.625;245
9.9502;3.80585;241.194;0.625;245
10.0605;3.72319;241.277;0.625;245
10.1675;3.64519;241.355;0.625;245
10.2764;3.5679;241.432;0.625;245
10.3843;3.49368;241.506;0.625;245
10.4917;3.42192;241.578;0.625;245
10.6006;3.35149;241.649;0.625;245
10.7095;3.28276;241.717;0.625;245
10.8193;3.21535;241.785;0.625;245
10.9268;3.15109;241.849;0.625;245
11.0352;3.08812;241.912;0.625;245
11.145;3.02591;241.974;0.625;245
11.2544;2.96527;242.035;0.625;245
11.3638;2.9062;242.094;0.625;245
11.4751;2.84729;242.153;0.625;245
11.584;2.7908;242.209;0.625;245
11.6938;2.73471;242.265;0.625;245
11.8018;2.68082;242.319;0.625;245
11.9097;2.62761;242.372;0.625;245
12.0176;2.57515;242.425;0.625;245
12.1265;2.5229;242.477;0.625;245
12.2388;2.46962;242.53;0.625;245
12.353;2.41588;242.584;0.625;245
12.4619;2.36514;242.635;0.625;245
12.5703;2.31506;242.685;0.625;245
12.6797;2.26474;242.735;0.625;245
12.7891;2.21442;242.786;0.625;245
12.8989;2.16414;242.836;0.625;245
13.0083;2.11438;242.886;0.625;245
13.1191;2.0638;242.936;0.625;245
13.2261;2.01494;242.985;0.625;245
13.334;1.9657;243.034;0.625;245
13.4438;1.91533;243.085;0.625;245
13.5532;1.86533;243.135;0.625;245
13.6606;1.81589;243.184;0.625;245
13.7695;1.76559;243.234;0.625;245
13.8779;1.71545;243.285;0.625;245
13.9878;1.66438;243.336;0.625;245
14.0972;1.61339;243.387;0.625;245
14.2061;1.56215;243.438;0.625;245
14.3218;1.5074;243.493;0.625;245
14.4297;1.45618;243.544;0.625;245
14.5381;1.4043;243.596;0.625;245
14.6479;1.35152;243.648;0.625;245
14.7559;1.29933;243.701;0.625;245
14.8638;1.24687;243.753;0.625;245
14.9712;1.19417;243.806;0.625;245
15.0791;1.14128;243.859;0.625;245
15.1855;1.08865;243.911;0.625;245
15.293;1.03508;243.965;0.625;245
15.4023;0.980316;244.02;0.625;245
15.5137;0.924362;244.076;0.625;245
15.6226;0.869324;244.131;0.625;245
15.7314;0.813873;244.186;0.625;245
15.8408;0.758057;244.242;0.625;245
15.9492;0.702454;244.298;0.625;245
16.0581;0.646194;244.354;0.625;245
16.166;0.590439;244.41;0.625;245
16.2754;0.533752;244.466;0.625;245
16.3843;0.476959;244.523;0.625;245
16.4927;0.420303;244.58;0.625;245
16.6006;0.363815;244.636;0.613815;245
16.708;0.307358;244.693;0.557358;245
16.8159;0.25058;244.749;0.50058;245
16.9248;0.193176;244.807;0.443176;245
17.0317;0.136566;244.863;0.386566;245
17.1406;0.0790863;244.921;0.329086;245
17.2505;0.0215912;244.978;0.271591;245
17.3584;-0.0344391;245.034;0.215561;245
17.4683;-0.0904541;245.09;0.159546;245
17.5796;-0.14566;245.146;0.10434;245
17.6885;-0.197357;245.197;0.0526428;245
17.7964;-0.246063;245.246;0.00393677;245
17.9058;-0.291794;245.292;0;245
18.0137;-0.332901;245.333;0;245
18.1221;-0.369324;245.369;0;245
18.2305;-0.400208;245.4;0;245
18.3389;-0.425171;245.425;0;245
18.4473;-0.44371;245.444;0;245
18.5562;-0.455246;245.455;0;245
18.666;-0.459656;245.46;0;245
18.7759;-0.456406;245.456;0;245
18.8838;-0.445633;245.446;0;245
18.9937;-0.426773;245.427;0;245
19.1021;-0.400406;245.4;0;245
19.2114;-0.365952;245.366;0;245
19.3193;-0.324615;245.325;0;245
19.4307;-0.274368;245.274;0;245
19.543;-0.216232;245.216;0.0337677;245
19.6494;-0.154312;245.154;0.0956879;245
19.7573;-0.0856476;245.086;0.164352;245
19.8662;-0.00923157;245.009;0.240768;245
19.9785;0.0751801;244.925;0.32518;245
20.082;0.158081;244.842;0.408081;245
20.1909;0.250839;244.749;0.500839;245
20.3003;0.348251;244.652;0.598251;245
20.4097;0.450439;244.55;0.625;245
20.519;0.556656;244.443;0.625;245
20.6284;0.666153;244.334;0.625;245
20.7373;0.778305;244.222;0.625;245
20.8467;0.894043;244.106;0.625;245
20.957;1.01274;243.987;0.625;245
21.0659;1.13156;243.868;0.625;245
21.1733;1.25021;243.75;0.625;245
21.2822;1.37029;243.63;0.625;245
21.3911;1.49051;243.509;0.625;245
21.5005;1.6104;243.39;0.625;245
21.6104;1.72906;243.271;0.625;245
21.7188;1.8436;243.156;0.625;245
21.8276;1.95673;243.043;0.625;245
21.937;2.06708;242.933;0.625;245
22.0464;2.17365;242.826;0.625;245
22.1543;2.27576;242.724;0.625;245
22.2642;2.37511;242.625;0.625;245
22.373;2.4698;242.53;0.625;245
22.4834;2.5607;242.439;0.625;245
22.5928;2.64627;242.354;0.625;245
22.7007;2.72603;242.274;0.625;245
22.8086;2.80113;242.199;0.625;245
22.917;2.87154;242.128;0.625;245
23.0254;2.93712;242.063;0.625;245
23.1333;2.99745;242.003;0.625;245
23.2412;3.05328;241.947;0.625;245
23.354;3.10609;241.894;0.625;245
23.46;3.1514;241.849;0.625;245
23.5708;3.19353;241.806;0.625;245
23.6821;3.23096;241.769;0.625;245
23.79;3.26266;241.737;0.625;245
23.8994;3.29042;241.71;0.625;245
24.0078;3.3136;241.686;0.625;245
24.1167;3.33243;241.668;0.625;245
24.2246;3.34714;241.653;0.625;245
24.3379;3.35829;241.642;0.625;245
24.4463;3.36507;241.635;0.625;245
24.5547;3.36807;241.632;0.625;245
24.6636;3.36774;241.632;0.625;245
24.7744;3.36366;241.636;0.625;245
24.8809;3.35649;241.644;0.625;245
24.9902;3.34613;241.654;0.625;245
25.0986;3.33292;241.667;0.625;245
25.2104;3.31616;241.684;0.625;245
25.3164;3.29771;241.702;0.625;245
25.4258;3.27609;241.724;0.625;245
25.5361;3.25175;241.748;0.625;245
25.6475;3.22498;241.775;0.625;245
25.7578;3.19621;241.804;0.625;245
25.8647;3.16629;241.834;0.625;245
25.9727;3.13423;241.866;0.625;245
26.0815;3.10011;241.9;0.625;245
26.189;3.06485;241.935;0.625;245
26.2974;3.02762;241.972;0.625;245
26.4058;2.98911;242.011;0.625;245
26.5151;2.94888;242.051;0.625;245
26.6255;2.90698;242.093;0.625;245
26.7354;2.86424;242.136;0.625;245
26.8423;2.82156;242.178;0.625;245
26.9517;2.77702;242.223;0.625;245
27.0605;2.73172;242.268;0.625;245
27.1714;2.68475;242.315;0.625;245
27.2778;2.63899;242.361;0.625;245
27.4048;2.58318;242.417;0.625;245
27.5151;2.53436;242.466;0.625;245
27.6182;2.48843;242.512;0.625;245
27.728;2.43901;242.561;0.625;245
27.8374;2.38936;242.611;0.625;245
27.9458;2.33955;242.66;0.625;245
28.0552;2.28889;242.711;0.625;245
28.167;2.23737;242.763;0.625;245
28.2744;2.18736;242.813;0.625;245
28.3823;2.1371;242.863;0.625;245
28.4917;2.08612;242.914;0.625;245
28.5996;2.03566;242.964;0.625;245
28.7109;1.98357;243.016;0.625;245
28.8174;1.93398;243.066;0.625;245
28.9253;1.88347;243.117;0.625;245
29.0322;1.83356;243.166;0.625;245
29.1396;1.78366;243.216;0.625;245
29.2461;1.73453;243.265;0.625;245
29.355;1.68419;243.316;0.625;245
29.4624;1.63492;243.365;0.625;245
29.5718;1.58469;243.415;0.625;245
29.6812;1.53477;243.465;0.625;245
29.791;1.48497;243.515;0.625;245
29.8989;1.43602;243.564;0.625;245
30.0083;1.38687;243.613;0.625;245
30.1157;1.33867;243.661;0.625;245
30.2241;1.29033;243.71;0.625;245
30.333;1.24216;243.758;0.625;245
30.4414;1.19463;243.805;0.625;245
30.5483;1.14803;243.852;0.625;245
30.6577;1.10056;243.899;0.625;245
30.7671;1.05342;243.947;0.625;245
30.8716;1.00851;243.991;0.625;245
30.979;0.962784;244.037;0.625;245
31.0869;0.917267;244.083;0.625;245
31.1963;0.871384;244.129;0.625;245
31.3032;0.826752;244.173;0.625;245
31.4141;0.780807;244.219;0.625;245
31.5215;0.736511;244.263;0.625;245
31.6299;0.691864;244.308;0.625;245
31.7402;0.647003;244.353;0.625;245
31.8477;0.603592;244.396;0.625;245
31.9565;0.559967;244.44;0.625;245
32.0649;0.516586;244.483;0.625;245
32.1738;0.473297;244.527;0.625;245
32.2847;0.429672;244.57;0.625;245
32.3975;0.385315;244.615;0.625;245
32.5049;0.343384;244.657;0.593384;245
32.6128;0.301559;244.698;0.551559;245
32.7222;0.259201;244.741;0.509201;245
32.8291;0.218063;244.782;0.468063;245
32.9375;0.176682;244.823;0.426682;245
33.0469;0.135147;244.865;0.385147;245
33.1558;0.0943298;244.906;0.34433;245
33.2632;0.0550842;244.945;0.305084;245
33.3726;0.016037;244.984;0.266037;245
33.479;-0.0205536;245.021;0.229446;245
33.5879;-0.0558777;245.056;0.194122;245
33.6958;-0.0885315;245.089;0.161469;245
33.8052;-0.118744;245.119;0.131256;245
33.9116;-0.144867;245.145;0.105133;245
34.0186;-0.167175;245.167;0.0828247;245
34.126;-0.18544;245.185;0.0645599;245
34.2334;-0.198776;245.199;0.0512238;245
34.3506;-0.207199;245.207;0.0428009;245
34.4546;-0.209137;245.209;0.040863;245
34.5625;-0.204926;245.205;0.0450745;245
34.6719;-0.194077;245.194;0.0559235;245
34.7793;-0.176926;245.177;0.0730743;245
34.8867;-0.152954;245.153;0.0970459;245
34.9956;-0.121582;245.122;0.128418;245
35.1025;-0.0839996;245.084;0.166;245
35.2104;-0.0393524;245.039;0.210648;245
35.3179;0.0119171;244.988;0.261917;245
35.4258;0.0699768;244.93;0.319977;245
35.5327;0.133667;244.866;0.383667;245
35.6406;0.203583;244.796;0.453583;245
35.7495;0.279526;244.72;0.529526;245
35.8584;0.360947;244.639;0.610947;245
35.9648;0.445114;244.555;0.625;245
36.0732;0.535355;244.465;0.625;245
36.1812;0.628647;244.371;0.625;245
36.2896;0.725388;244.275;0.625;245
36.3984;0.825073;244.175;0.625;245
36.5068;0.926285;244.074;0.625;245
36.6147;1.02901;243.971;0.625;245
36.7236;1.1326;243.867;0.625;245
36.8306;1.23541;243.765;0.625;245
36.9375;1.33757;243.662;0.625;245
37.0444;1.43881;243.561;0.625;245
37.1514;1.53851;243.461;0.625;245
37.2578;1.6371;243.363;0.625;245
37.3647;1.73364;243.266;0.625;245
37.4731;1.82945;243.171;0.625;245
37.5811;1.9223;243.078;0.625;245
37.6895;2.01234;242.988;0.625;245
37.7979;2.09941;242.901;0.625;245
37.9053;2.18251;242.817;0.625;245
38.0127;2.26227;242.738;0.625;245
38.1206;2.33862;242.661;0.625;245
38.229;2.4117;242.588;0.625;245
38.3374;2.48099;242.519;0.625;245
38.4438;2.54506;242.455;0.625;245
38.5513;2.60623;242.394;0.625;245
38.6587;2.6635;242.337;0.625;245
38.7656;2.71645;242.284;0.625;245
38.8721;2.76524;242.235;0.625;245
38.981;2.81133;242.189;0.625;245
39.0889;2.85309;242.147;0.625;245
39.1953;2.89032;242.11;0.625;245
39.3037;2.92441;242.076;0.625;245
39.4121;2.95459;242.045;0.625;245
39.5195;2.98079;242.019;0.625;245
39.6289;3.00375;241.996;0.625;245
39.7373;3.02286;241.977;0.625;245
39.8452;3.03845;241.962;0.625;245
39.9512;3.05022;241.95;0.625;245
40.0576;3.05894;241.941;0.625;245
40.165;3.06441;241.936;0.625;245
40.2773;3.06689;241.933;0.625;245
40.3848;3.06625;241.934;0.625;245
40.4922;3.06273;241.937;0.625;245
40.5986;3.05626;241.944;0.625;245
40.7061;3.04706;241.953;0.625;245
40.8135;3.03535;241.965;0.625;245
40.9219;3.0209;241.979;0.625;245
41.0298;3.00421;241.996;0.625;245
41.1367;2.98521;242.015;0.625;245
41.2446;2.96399;242.036;0.625;245
41.3525;2.9406;242.059;0.625;245
41.46;2.91536;242.085;0.625;245
41.5669;2.88852;242.111;0.625;245
41.6758;2.85933;242.141;0.625;245
41.7827;2.82904;242.171;0.625;245
41.8896;2.79706;242.203;0.625;245
41.9956;2.76392;242.236;0.625;245
42.1045;2.72842;242.272;0.625;245
42.209;2.69319;242.307;0.625;245
42.3179;2.65506;242.345;0.625;245
42.4253;2.61655;242.383;0.625;245
42.5317;2.57712;242.423;0.625;245
42.6392;2.53642;242.464;0.625;245
42.7461;2.4949;242.505;0.625;245
42.8545;2.45224;242.548;0.625;245
42.9619;2.40895;242.591;0.625;245
43.0684;2.36555;242.634;0.625;245
43.1753;2.32092;242.679;0.625;245
43.2812;2.27629;242.724;0.625;245
43.3892;2.23015;242.77;0.625;245
43.498;2.18317;242.817;0.625;245
43.6011;2.13831;242.862;0.625;245
43.7095;2.09082;242.909;0.625;245
43.8179;2.04279;242.957;0.625;245
43.9351;1.99054;243.009;0.625;245
44.0405;1.94331;243.057;0.625;245
44.1479;1.89531;243.105;0.625;245
44.2539;1.84756;243.152;0.625;245
44.3604;1.79959;243.2;0.625;245
44.4673;1.75113;243.249;0.625;245
44.5767;1.70169;243.298;0.625;245
44.6812;1.65419;243.346;0.625;245
44.7871;1.60634;243.394;0.625;245
44.8936;1.55821;243.442;0.625;245
44.9995;1.51041;243.49;0.625;245
45.106;1.46237;243.538;0.625;245
45.2124;1.41451;243.585;0.625;245
45.3193;1.36655;243.633;0.625;245
45.4268;1.31862;243.681;0.625;245
45.5342;1.27074;243.729;0.625;245
45.6416;1.22301;243.777;0.625;245
45.7515;1.1745;243.826;0.625;245
45.8608;1.12645;243.874;0.625;245
45.9688;1.07936;243.921;0.625;245
46.0776;1.0321;243.968;0.625;245
46.186;0.985306;244.015;0.625;245
46.2944;0.938705;244.061;0.625;245
46.4028;0.892334;244.108;0.625;245
46.5117;0.845993;244.154;0.625;245
46.6196;0.800354;244.2;0.625;245
46.728;0.754822;244.245;0.625;245
46.8369;0.709183;244.291;0.625;245
46.9463;0.66391;244.336;0.625;245
47.0566;0.618347;244.382;0.625;245
47.1641;0.574448;244.426;0.625;245
47.2749;0.529251;244.471;0.625;245
47.3823;0.485657;244.514;0.625;245
47.4912;0.441864;244.558;0.625;245
47.6021;0.397278;244.603;0.625;245
47.7104;0.354248;244.646;0.604248;245
47.8198;0.310852;244.689;0.560852;245
47.9297;0.267517;244.732;0.517517;245
48.0371;0.225433;244.775;0.475433;245
48.147;0.182678;244.817;0.432678;245
48.2529;0.141968;244.858;0.391968;245
48.3633;0.100021;244.9;0.350021;245
48.4712;0.0599213;244.94;0.309921;245
48.5801;0.0204926;244.98;0.270493;245
48.689;-0.0175629;245.018;0.232437;245
48.7979;-0.0536194;245.054;0.196381;245
48.9097;-0.08815;245.088;0.16185;245
49.0171;-0.118484;245.118;0.131516;245
49.1265;-0.145935;245.146;0.104065;245
49.2368;-0.169479;245.169;0.0805206;245
49.3457;-0.188232;245.188;0.0617676;245
49.4517;-0.201553;245.202;0.0484467;245
49.561;-0.209946;245.21;0.0400543;245
49.668;-0.212341;245.212;0.0376587;245
49.7773;-0.208527;245.209;0.0414734;245
49.8867;-0.198029;245.198;0.0519714;245
49.9971;-0.180511;245.181;0.0694885;245
50.105;-0.156403;245.156;0.0935974;245
50.2144;-0.124634;245.125;0.125366;245
50.3223;-0.0863953;245.086;0.163605;245
50.4326;-0.040329;245.04;0.209671;245
50.541;0.0123444;244.988;0.262344;245
50.6499;0.0716858;244.928;0.321686;245
50.7583;0.137238;244.863;0.387238;245
50.8682;0.209427;244.791;0.459427;245
50.9775;0.287491;244.713;0.537491;245
51.0854;0.36969;244.63;0.61969;245
51.1934;0.456497;244.544;0.625;245
51.3008;0.547226;244.453;0.625;245
51.4106;0.643723;244.356;0.625;245
51.5176;0.741089;244.259;0.625;245
51.6372;0.852509;244.147;0.625;245
51.7471;0.957291;244.043;0.625;245
51.8574;1.06425;243.936;0.625;245
51.9658;1.16975;243.83;0.625;245
52.0742;1.27567;243.724;0.625;245
52.1826;1.38116;243.619;0.625;245
52.2939;1.48875;243.511;0.625;245
52.3994;1.5898;243.41;0.625;245
52.5083;1.69188;243.308;0.625;245
52.6167;1.79147;243.209;0.625;245
52.7256;1.88924;243.111;0.625;245
52.834;1.98373;243.016;0.625;245
52.9419;2.07521;242.925;0.625;245
53.0493;2.16318;242.837;0.625;245
53.1587;2.24931;242.751;0.625;245
53.2671;2.33118;242.669;0.625;245
53.376;2.40961;242.59;0.625;245
53.4849;2.48463;242.515;0.625;245
53.5947;2.55606;242.444;0.625;245
53.7026;2.62241;242.378;0.625;245
53.813;2.68633;242.314;0.625;245
53.9263;2.74742;242.253;0.625;245
54.0312;2.80028;242.2;0.625;245
54.1387;2.85051;242.149;0.625;245
54.2456;2.8965;242.104;0.625;245
54.3613;2.94197;242.058;0.625;245
54.4658;2.97932;242.021;0.625;245
54.5757;3.01442;241.986;0.625;245
54.6812;3.04431;241.956;0.625;245
54.7896;3.07141;241.929;0.625;245
54.8989;3.09486;241.905;0.625;245
55.0068;3.11444;241.886;0.625;245
55.1162;3.13077;241.869;0.625;245
55.2246;3.14339;241.857;0.625;245
55.3325;3.15276;241.847;0.625;245
55.4443;3.15881;241.841;0.625;245
55.5508;3.16156;241.838;0.625;245
55.6582;3.16125;241.839;0.625;245
55.7666;3.158;241.842;0.625;245
55.876;3.15178;241.848;0.625;245
55.9829;3.14311;241.857;0.625;245
56.0889;3.13187;241.868;0.625;245
56.1963;3.11801;241.882;0.625;245
56.3076;3.10123;241.899;0.625;245
56.4194;3.08176;241.918;0.625;245
56.5278;3.06081;241.939;0.625;245
56.6362;3.03784;241.962;0.625;245
56.7446;3.01262;241.987;0.625;245
56.8521;2.98576;242.014;0.625;245
56.9595;2.95705;242.043;0.625;245
57.0679;2.92653;242.073;0.625;245
57.1768;2.89429;242.106;0.625;245
57.2842;2.86102;242.139;0.625;245
57.3926;2.826;242.174;0.625;245
57.5;2.78995;242.21;0.625;245
57.6133;2.7507;242.249;0.625;245
57.7275;2.70982;242.29;0.625;245
57.8359;2.66983;242.33;0.625;245
57.9482;2.6273;242.373;0.625;245
58.0547;2.58615;242.414;0.625;245
58.1631;2.5434;242.457;0.625;245
58.2715;2.49994;242.5;0.625;245
58.3799;2.45573;242.544;0.625;245
58.4883;2.41068;242.589;0.625;245
58.5972;2.36499;242.635;0.625;245
58.7061;2.3187;242.681;0.625;245
58.8125;2.27278;242.727;0.625;245
58.9214;2.22572;242.774;0.625;245
59.0283;2.17891;242.821;0.625;245
59.1367;2.13135;242.869;0.625;245
59.2441;2.08385;242.916;0.625;245
59.3511;2.03616;242.964;0.625;245
59.4614;1.98701;243.013;0.625;245
59.5693;1.93874;243.061;0.625;245
59.6768;1.8905;243.109;0.625;245
59.7856;1.84137;243.159;0.625;245
59.8955;1.79199;243.208;0.625;245
60.0049;1.74278;243.257;0.625;245
60.1138;1.6937;243.306;0.625;245
60.2217;1.64513;243.355;0.625;245
60.3296;1.59676;243.403;0.625;245
60.438;1.5481;243.452;0.625;245
60.5454;1.50021;243.5;0.625;245
60.6528;1.45251;243.547;0.625;245
60.7607;1.40454;243.595;0.625;245
60.8711;1.35587;243.644;0.625;245
60.9775;1.3089;243.691;0.625;245
61.0845;1.26192;243.738;0.625;245
61.1929;1.21468;243.785;0.625;245
61.3018;1.1675;243.833;0.625;245
61.4092;1.1209;243.879;0.625;245
61.5176;1.07425;243.926;0.625;245
61.6309;1.02574;243.974;0.625;245
61.7471;0.976379;244.024;0.625;245
61.8564;0.930161;244.07;0.625;245
61.9653;0.884399;244.116;0.625;245
62.0728;0.839432;244.161;0.625;245
62.1802;0.794937;244.205;0.625;245
62.2871;0.750687;244.249;0.625;245
62.3955;0.706177;244.294;0.625;245
62.5024;0.662598;244.337;0.625;245
62.6113;0.6185;244.382;0.625;245
