Airframe: C90B
Kp: 0.135
Ki: 0.055181
Kd: 0
tau: 0.025
limMin: 0.25
limMax: 0.765
intLimMin: 0.25
intLimMax: 0.5
holdSpeed: 180
T: 0.025
setpoint: 180
t;error;speed;out;setpoint
0.148193;30.5998;149.4;0.765;180
0.27124;30.6398;149.36;0.765;180
0.393311;30.6774;149.323;0.765;180
0.515381;30.7101;149.29;0.765;180
0.637939;30.7354;149.265;0.765;180
0.750732;30.7497;149.25;0.765;180
0.878418;30.7533;149.247;0.765;180
1.00757;30.741;149.259;0.765;180
1.12866;30.7136;149.286;0.765;180
1.25171;30.6693;149.331;0.765;180
1.38062;30.6046;149.395;0.765;180
1.49536;30.5309;149.469;0.765;180
1.60059;30.451;149.549;0.765;180
1.7124;30.3528;149.647;0.765;180
1.82324;30.2429;149.757;0.765;180
1.93286;30.1227;149.877;0.765;180
2.04297;29.991;150.009;0.765;180
2.15405;29.8484;150.152;0.765;180
2.2627;29.6996;150.3;0.765;180
2.37256;29.5411;150.459;0.765;180
2.48438;29.3716;150.628;0.765;180
2.59448;29.1987;150.801;0.765;180
2.70508;29.019;150.981;0.765;180
2.8147;28.836;151.164;0.765;180
2.92798;28.6425;151.357;0.765;180
3.03979;28.4482;151.552;0.765;180
3.15015;28.2528;151.747;0.765;180
3.2583;28.0594;151.941;0.765;180
3.36279;27.8707;152.129;0.765;180
3.46289;27.6891;152.311;0.765;180
3.58447;27.4669;152.533;0.765;180
3.70117;27.2531;152.747;0.765;180
3.81445;27.0459;152.954;0.765;180
3.91675;26.8584;153.142;0.765;180
4.01855;26.6719;153.328;0.765;180
4.12695;26.4742;153.526;0.765;180
4.24341;26.2628;153.737;0.765;180
4.36426;26.0446;153.955;0.765;180
4.47144;25.8523;154.148;0.765;180
4.59985;25.6231;154.377;0.765;180
4.72192;25.4075;154.592;0.765;180
4.84302;25.1957;154.804;0.765;180
4.96021;24.9931;155.007;0.765;180
5.07007;24.8044;155.196;0.765;180
5.17969;24.6186;155.381;0.765;180
5.29077;24.432;155.568;0.765;180
5.40186;24.2473;155.753;0.765;180
5.51318;24.0641;155.936;0.765;180
5.6228;23.8859;156.114;0.765;180
5.73267;23.7087;156.291;0.765;180
5.84131;23.5358;156.464;0.765;180
5.95044;23.3632;156.637;0.765;180
6.06104;23.1904;156.81;0.765;180
6.17041;23.0211;156.979;0.765;180
6.28174;22.8502;157.15;0.765;180
6.39185;22.683;157.317;0.765;180
6.50171;22.5175;157.483;0.765;180
6.6167;22.3457;157.654;0.765;180
6.72168;22.1906;157.809;0.765;180
6.83081;22.0305;157.97;0.765;180
6.94385;21.8658;158.134;0.765;180
7.05591;21.7039;158.296;0.765;180
7.16772;21.5437;158.456;0.765;180
7.27856;21.3857;158.614;0.765;180
7.39087;21.2266;158.773;0.765;180
7.5022;21.0702;158.93;0.765;180
7.61475;20.9125;159.087;0.765;180
7.72168;20.764;159.236;0.765;180
7.83032;20.6134;159.387;0.765;180
7.93945;20.463;159.537;0.765;180
8.04956;20.3116;159.688;0.765;180
8.15869;20.1619;159.838;0.765;180
8.27051;20.0094;159.991;0.765;180
8.37329;19.8694;160.131;0.765;180
8.4751;19.7313;160.269;0.765;180
8.57739;19.5925;160.407;0.765;180
8.67871;19.4557;160.544;0.765;180
8.80566;19.2845;160.715;0.765;180
8.92651;19.1221;160.878;0.765;180
9.05396;18.9511;161.049;0.765;180
9.15625;18.8143;161.186;0.765;180
9.27612;18.6537;161.346;0.765;180
9.40405;18.4823;161.518;0.765;180
9.53223;18.3107;161.689;0.765;180
9.65308;18.1489;161.851;0.765;180
9.75952;18.006;161.994;0.765;180
9.88086;17.8431;162.157;0.765;180
10.0027;17.679;162.321;0.765;180
10.1055;17.5405;162.459;0.765;180
10.2136;17.3941;162.606;0.765;180
10.3164;17.2545;162.745;0.765;180
10.418;17.1162;162.884;0.765;180
10.5195;16.9775;163.023;0.765;180
10.625;16.833;163.167;0.765;180
10.7368;16.6789;163.321;0.765;180
10.8586;16.5105;163.49;0.765;180
10.979;16.3431;163.657;0.765;180
11.106;16.1652;163.835;0.765;180
11.2219;16.0018;163.998;0.765;180
11.3296;15.8494;164.151;0.765;180
11.4309;15.7051;164.295;0.765;180
11.5325;15.5599;164.44;0.765;180
11.637;15.4095;164.59;0.765;180
11.759;15.2328;164.767;0.765;180
11.8672;15.0753;164.925;0.765;180
11.9688;14.9268;165.073;0.765;180
12.0698;14.7781;165.222;0.765;180
12.1724;14.6262;165.374;0.765;180
12.2998;14.4365;165.564;0.765;180
12.4077;14.275;165.725;0.765;180
12.5149;14.1135;165.887;0.765;180
12.6172;13.9587;166.041;0.765;180
12.7297;13.7874;166.213;0.765;180
12.853;13.5987;166.401;0.765;180
12.9822;13.3999;166.6;0.765;180
13.1113;13.1997;166.8;0.765;180
13.2205;13.0294;166.971;0.765;180
13.3225;12.8698;167.13;0.765;180
13.4236;12.711;167.289;0.765;180
13.5256;12.5496;167.45;0.765;180
13.627;12.3889;167.611;0.765;180
13.7302;12.2246;167.775;0.765;180
13.8325;12.0608;167.939;0.765;180
13.9346;11.8972;168.103;0.765;180
14.0364;11.733;168.267;0.765;180
14.146;11.5554;168.445;0.765;180
14.2693;11.3553;168.645;0.765;180
14.3916;11.1559;168.844;0.765;180
14.4939;10.9887;169.011;0.765;180
14.5959;10.8209;169.179;0.765;180
14.7061;10.6396;169.36;0.765;180
14.8325;10.4305;169.57;0.765;180
14.9602;10.2187;169.781;0.765;180
15.0808;10.018;169.982;0.765;180
15.1895;9.83676;170.163;0.765;180
15.3167;9.62408;170.376;0.765;180
15.438;9.42072;170.579;0.765;180
15.5383;9.25238;170.748;0.765;180
15.6411;9.07959;170.92;0.765;180
15.7573;8.8833;171.117;0.765;180
15.8584;8.71255;171.287;0.765;180
15.96;8.54056;171.459;0.765;180
16.0632;8.36584;171.634;0.765;180
16.1655;8.19215;171.808;0.765;180
16.2939;7.97403;172.026;0.765;180
16.4221;7.7561;172.244;0.765;180
16.5413;7.55299;172.447;0.765;180
16.6558;7.35765;172.642;0.765;180
16.772;7.15945;172.841;0.765;180
16.8862;6.96463;173.035;0.765;180
17.0083;6.7558;173.244;0.765;180
17.1301;6.54787;173.452;0.765;180
17.252;6.33963;173.66;0.765;180
17.3713;6.13551;173.864;0.765;180
17.481;5.94795;174.052;0.765;180
17.5833;5.77313;174.227;0.765;180
17.6956;5.58121;174.419;0.765;180
17.8103;5.38541;174.615;0.765;180
17.939;5.166;174.834;0.765;180
18.0591;4.96107;175.039;0.765;180
18.1738;4.76585;175.234;0.765;180
18.2944;4.56036;175.44;0.765;180
18.4153;4.35492;175.645;0.765;180
18.5364;4.1492;175.851;0.765;180
18.6543;3.94902;176.051;0.765;180
18.7578;3.77382;176.226;0.765;180
18.8792;3.56866;176.431;0.765;180
19.0071;3.35313;176.647;0.765;180
19.1152;3.17116;176.829;0.765;180
19.2256;2.98604;177.014;0.765;180
19.3481;2.78073;177.219;0.765;180
19.4573;2.59891;177.401;0.765;180
19.5596;2.42845;177.572;0.765;180
19.6633;2.25618;177.744;0.765;180
19.7754;2.07092;177.929;0.765;180
19.9031;1.85983;178.14;0.751077;180
20.0186;1.67015;178.33;0.72547;180
20.1206;1.50266;178.497;0.702858;180
20.2295;1.32518;178.675;0.678899;180
20.3567;1.11909;178.881;0.651078;180
20.4705;0.936707;179.063;0.626455;180
20.5903;0.747284;179.253;0.600883;180
20.7129;0.556915;179.443;0.575184;180
20.8167;0.400391;179.6;0.554053;180
20.9458;0.211365;179.789;0.528534;180
21.0659;0.0433502;179.957;0.505852;180
21.1702;-0.0955658;180.096;0.486909;180
21.2993;-0.257629;180.258;0.463766;180
21.4265;-0.405136;180.405;0.44152;180
21.5347;-0.520691;180.521;0.423152;180
21.6375;-0.621063;180.621;0.40636;180
21.748;-0.718933;180.719;0.389053;180
21.8499;-0.798798;180.799;0.374004;180
21.9521;-0.869461;180.869;0.359752;180
22.0535;-0.929398;180.929;0.346627;180
22.157;-0.980316;180.98;0.334294;180
22.2786;-1.02696;181.027;0.321256;180
22.3931;-1.05762;181.058;0.310526;180
22.4978;-1.0748;181.075;0.30204;180
22.6125;-1.08156;181.082;0.294294;180
22.7324;-1.07593;181.076;0.287912;180
22.8408;-1.0602;181.06;0.283643;180
22.9614;-1.03142;181.031;0.280562;180
23.0747;-0.994217;180.994;0.279249;180
23.1907;-0.946655;180.947;0.279455;180
23.3191;-0.883682;180.884;0.281466;180
23.4368;-0.817337;180.817;0.284896;180
23.5383;-0.754074;180.754;0.28903;180
23.6416;-0.684494;180.684;0.294322;180
23.7646;-0.595474;180.595;0.301991;180
23.8848;-0.502655;180.503;0.310879;180
24.0122;-0.39859;180.399;0.321756;180
24.1379;-0.291122;180.291;0.333869;180
24.2607;-0.182068;180.182;0.346986;180
24.3877;-0.06604;180.066;0.361779;180
24.5024;0.0416565;179.958;0.376239;180
24.6042;0.138809;179.861;0.389862;180
24.7131;0.24437;179.756;0.405262;180
24.8301;0.358582;179.641;0.422626;180
24.959;0.485443;179.515;0.442754;180
25.0789;0.603485;179.397;0.462291;180
25.2002;0.722458;179.278;0.482792;180
25.3271;0.845795;179.154;0.504936;180
25.4397;0.953201;179.047;0.525023;180
25.5679;1.07253;178.927;0.548298;180
25.6819;1.17542;178.825;0.569261;180
25.8079;1.28423;178.716;0.592503;180
25.9373;1.38963;178.61;0.616283;180
26.05;1.47523;178.525;0.636758;180
26.1731;1.56076;178.439;0.658615;180
26.2927;1.63486;178.365;0.67917;180
26.4216;1.70406;178.296;0.700394;180
26.5508;1.76117;178.239;0.720459;180
26.6707;1.80234;178.198;0.737809;180
26.7874;1.83015;178.17;0.747071;180
26.907;1.8459;178.154;0.749197;180
27.0356;1.84773;178.152;0.749444;180
27.1575;1.83437;178.166;0.747639;180
27.2725;1.808;178.192;0.74408;180
27.3857;1.76907;178.231;0.738825;180
27.5144;1.7093;178.291;0.730756;180
27.6255;1.6452;178.355;0.722102;180
27.7317;1.57362;178.426;0.712439;180
27.8433;1.48798;178.512;0.700877;180
27.9546;1.39296;178.607;0.68805;180
28.0667;1.28873;178.711;0.673978;180
28.1777;1.17816;178.822;0.659052;180
28.2886;1.06137;178.939;0.643285;180
28.3987;0.940277;179.06;0.626937;180
28.5095;0.814407;179.186;0.609945;180
28.6206;0.685944;179.314;0.592602;180
28.731;0.55658;179.443;0.575138;180
28.8462;0.421173;179.579;0.556858;180
28.9631;0.284836;179.715;0.538453;180
29.0767;0.154785;179.845;0.520896;180
29.1865;0.0321198;179.968;0.504336;180
29.2964;-0.0862122;180.086;0.488169;180
29.4067;-0.200104;180.2;0.47192;180
29.5186;-0.309189;180.309;0.45562;180
29.6299;-0.410889;180.411;0.439675;180
29.739;-0.503372;180.503;0.424434;180
29.8491;-0.588715;180.589;0.409591;180
29.9597;-0.665741;180.666;0.39536;180
30.0713;-0.734344;180.734;0.381785;180
30.1821;-0.792969;180.793;0.369195;180
30.293;-0.84201;180.842;0.35757;180
30.4033;-0.880905;180.881;0.347069;180
30.5137;-0.909805;180.91;0.337711;180
30.6279;-0.929199;180.929;0.32929;180
30.7434;-0.937973;180.938;0.322151;180
30.8552;-0.936172;180.936;0.316608;180
30.9656;-0.924622;180.925;0.312497;180
31.0784;-0.903091;180.903;0.309711;180
31.1902;-0.872437;180.872;0.308368;180
31.3005;-0.833389;180.833;0.308441;180
31.4114;-0.785904;180.786;0.309896;180
31.5215;-0.731094;180.731;0.312683;180
31.6321;-0.668762;180.669;0.316823;180
31.7422;-0.59964;180.6;0.322298;180
31.8518;-0.524689;180.525;0.329013;180
31.9622;-0.443558;180.444;0.337015;180
32.074;-0.355545;180.356;0.346429;180
32.1838;-0.264297;180.264;0.356866;180
32.2952;-0.167236;180.167;0.368642;180
32.4043;-0.0679779;180.068;0.381332;180
32.5149;0.0364075;179.964;0.395326;180
32.6235;0.14241;179.858;0.410171;180
32.7341;0.252899;179.747;0.426292;180
32.8445;0.365646;179.634;0.443395;180
32.9553;0.480484;179.52;0.461484;180
33.0674;0.598267;179.402;0.48072;180
33.1787;0.715744;179.284;0.500615;180
33.2886;0.832047;179.168;0.521008;180
33.3987;0.948029;179.052;0.542073;180
33.5088;1.06281;178.937;0.563677;180
33.6189;1.17586;178.824;0.585741;180
33.7295;1.28651;178.713;0.608195;180
33.8398;1.39348;178.607;0.630797;180
33.9492;1.49496;178.505;0.653216;180
34.0559;1.58894;178.411;0.674984;180
34.1621;1.67627;178.324;0.696343;180
34.2844;1.76859;178.231;0.720436;180
34.4031;1.8486;178.151;0.743086;180
34.5071;1.91017;178.09;0.757873;180
34.6208;1.96747;178.033;0.765;180
34.7339;2.01323;177.987;0.765;180
34.8501;2.04779;177.952;0.765;180
34.9619;2.06851;177.931;0.765;180
35.0698;2.07646;177.924;0.765;180
35.1772;2.07259;177.927;0.765;180
35.282;2.0575;177.943;0.765;180
35.3928;2.02943;177.971;0.765;180
35.5056;1.98854;178.011;0.765;180
35.6204;1.93471;178.065;0.761186;180
35.7234;1.87642;178.124;0.753317;180
35.8325;1.8051;178.195;0.743688;180
35.9504;1.71779;178.282;0.731901;180
36.0603;1.62761;178.372;0.719727;180
36.1758;1.52495;178.475;0.705868;180
36.2896;1.41705;178.583;0.691302;180
36.3987;1.30824;178.692;0.676613;180
36.5066;1.19682;178.803;0.661571;180
36.6096;1.08754;178.912;0.646818;180
36.718;0.970505;179.029;0.631018;180
36.8384;0.839905;179.16;0.613387;180
36.9485;0.720703;179.279;0.597295;180
37.0686;0.592545;179.407;0.579993;180
37.1824;0.473724;179.526;0.563953;180
37.2966;0.35849;179.642;0.548396;180
37.3987;0.259491;179.741;0.535031;180
37.5137;0.153824;179.846;0.520766;180
37.6179;0.0635223;179.936;0.508575;180
37.7202;-0.0188904;180.019;0.497437;180
37.8213;-0.0941467;180.094;0.486959;180
37.9294;-0.167282;180.167;0.476302;180
38.0312;-0.228699;180.229;0.466895;180
38.1328;-0.282623;180.283;0.458179;180
38.2349;-0.329254;180.329;0.450158;180
38.3359;-0.367462;180.367;0.443054;180
38.4368;-0.397949;180.398;0.436806;180
38.5437;-0.421967;180.422;0.43114;180
38.6631;-0.438385;180.438;0.426084;180
38.7849;-0.444138;180.444;0.422335;180
38.9097;-0.438477;180.438;0.420056;180
39.0322;-0.422104;180.422;0.41935;180
39.1609;-0.393661;180.394;0.420288;180
39.2825;-0.356522;180.357;0.42278;180
39.4019;-0.311035;180.311;0.426718;180
39.5049;-0.264847;180.265;0.431313;180
39.6077;-0.212875;180.213;0.436972;180
39.7112;-0.154724;180.155;0.44377;180
39.8132;-0.092453;180.092;0.451478;180
39.9167;-0.0245667;180.025;0.460307;180
40.032;0.056076;179.944;0.471292;180
40.1382;0.134705;179.865;0.482464;180
40.2544;0.224731;179.775;0.495768;180
40.3745;0.321381;179.679;0.510625;180
40.4939;0.420227;179.58;0.526411;180
40.6233;0.529648;179.47;0.544573;180
40.7507;0.638855;179.361;0.563424;180
40.8774;0.747345;179.253;0.582916;180
40.9941;0.846497;179.154;0.601433;180
41.1091;0.942627;179.057;0.620088;180
41.2148;1.02902;178.971;0.637503;180
41.3167;1.10938;178.891;0.649766;180
41.4421;1.20392;178.796;0.662529;180
41.5569;1.2847;178.715;0.673434;180
41.6721;1.3597;178.64;0.683559;180
41.7998;1.43459;178.565;0.693669;180
41.9197;1.49615;178.504;0.701981;180
42.0273;1.54376;178.456;0.708408;180
42.1296;1.58192;178.418;0.71356;180
42.2341;1.61353;178.386;0.717826;180
42.3354;1.63676;178.363;0.720963;180
42.4448;1.6537;178.346;0.72325;180
42.5486;1.66174;178.338;0.724335;180
42.6562;1.66196;178.338;0.724364;180
42.7678;1.6537;178.346;0.72325;180
42.8682;1.63881;178.361;0.721239;180
42.9736;1.61586;178.384;0.718141;180
43.0884;1.58304;178.417;0.71371;180
43.2109;1.53914;178.461;0.707784;180
43.3269;1.4901;178.51;0.701163;180
43.4299;1.4406;178.559;0.694481;180
43.531;1.3875;178.613;0.687312;180
43.6331;1.3295;178.671;0.679482;180
43.7495;1.25897;178.741;0.669961;180
43.8638;1.18588;178.814;0.660094;180
43.9744;1.1124;178.888;0.650173;180
44.0754;1.04349;178.957;0.640871;180
44.1787;0.971878;179.028;0.631204;180
44.2981;0.888504;179.111;0.619948;180
44.4194;0.803787;179.196;0.608511;180
44.5461;0.716629;179.283;0.596745;180
44.667;0.635483;179.365;0.58579;180
44.7852;0.558762;179.441;0.575433;180
44.9104;0.481186;179.519;0.56496;180
45.0366;0.406631;179.593;0.554895;180
45.1516;0.344467;179.656;0.546503;180
45.259;0.290756;179.709;0.539252;180
45.3621;0.243759;179.756;0.532907;180
45.4634;0.201736;179.798;0.527234;180
45.5652;0.164154;179.836;0.522161;180
45.6714;0.130096;179.87;0.517563;180
45.7871;0.098999;179.901;0.513365;180
45.9141;0.0723419;179.928;0.509766;180
46.0435;0.0531464;179.947;0.507175;180
46.1716;0.0421448;179.958;0.50569;180
46.2866;0.0387726;179.961;0.505234;180
46.4148;0.0422821;179.958;0.505708;180
46.5278;0.0513916;179.949;0.506938;180
46.6606;0.0691071;179.931;0.509329;180
46.7673;0.0883026;179.912;0.511921;180
46.895;0.116974;179.883;0.515791;180
47.0132;0.148468;179.852;0.520043;180
47.134;0.185226;179.815;0.525006;180
47.2366;0.219788;179.78;0.529671;180
47.3557;0.263138;179.737;0.535524;180
47.4836;0.312836;179.687;0.542233;180
47.6023;0.361404;179.639;0.54879;180
47.7166;0.409851;179.59;0.55533;180
47.8308;0.459534;179.54;0.562037;180
47.9321;0.504227;179.496;0.568071;180
48.0342;0.549469;179.451;0.574178;180
48.1543;0.602295;179.398;0.58131;180
48.2771;0.655609;179.344;0.588507;180
48.3853;0.701431;179.299;0.594693;180
48.4868;0.743134;179.257;0.600323;180
48.5886;0.783463;179.217;0.605767;180
48.6914;0.822113;179.178;0.610985;180
48.8137;0.865143;179.135;0.616794;180
48.9426;0.906448;179.094;0.622371;180
49.0671;0.942032;179.058;0.627174;180
49.1807;0.970291;179.03;0.630989;180
49.3027;0.996033;179.004;0.634464;180
49.4292;1.01732;178.983;0.637338;180
49.5581;1.03336;178.967;0.639503;180
49.6858;1.04333;178.957;0.64085;180
49.8081;1.04745;178.953;0.641406;180
49.9363;1.04631;178.954;0.641252;180
50.0381;1.04114;178.959;0.640554;180
50.1472;1.03181;178.968;0.639295;180
50.2566;1.01846;178.982;0.637493;180
50.3596;1.00235;178.998;0.635317;180
50.4604;0.98349;179.017;0.632771;180
50.5696;0.959976;179.04;0.629597;180
50.6838;0.931778;179.068;0.62579;180
50.8081;0.897675;179.102;0.621186;180
50.9241;0.86264;179.137;0.616456;180
51.0378;0.826019;179.174;0.611513;180
51.166;0.782257;179.218;0.605605;180
51.2886;0.738373;179.262;0.59968;180
51.4033;0.695892;179.304;0.593945;180
51.5042;0.657898;179.342;0.588816;180
51.6069;0.618622;179.381;0.583514;180
51.7092;0.5793;179.421;0.578205;180
51.8306;0.532745;179.467;0.571921;180
51.9312;0.494507;179.505;0.566758;180
52.032;0.456741;179.543;0.56166;180
52.135;0.418976;179.581;0.556562;180
52.2568;0.375732;179.624;0.550724;180
52.384;0.332489;179.668;0.544886;180
52.5054;0.293549;179.706;0.539629;180
52.6221;0.258286;179.742;0.534869;180
52.7258;0.228958;179.771;0.530909;180
52.8547;0.195496;179.805;0.526392;180
52.9705;0.168594;179.831;0.52276;180
53.0835;0.144867;179.855;0.519557;180
53.2129;0.121552;179.878;0.516409;180
53.3167;0.105759;179.894;0.514277;180
53.4182;0.0926208;179.907;0.512504;180
53.519;0.0819855;179.918;0.511068;180
53.6206;0.0737457;179.926;0.509956;180
53.7307;0.0675659;179.932;0.509121;180
53.8577;0.0640717;179.936;0.50865;180
53.9841;0.0640411;179.936;0.508646;180
54.0979;0.0669861;179.933;0.509043;180
54.2014;0.0720825;179.928;0.509731;180
54.3127;0.0798798;179.92;0.510784;180
54.4141;0.0889587;179.911;0.512009;180
54.5234;0.100861;179.899;0.513616;180
54.6265;0.113785;179.886;0.515361;180
54.7351;0.128983;179.871;0.517413;180
54.8372;0.14473;179.855;0.519539;180
54.9385;0.161667;179.838;0.521825;180
55.0564;0.182755;179.817;0.524672;180
55.1572;0.201782;179.798;0.527241;180
55.2659;0.22316;179.777;0.530127;180
55.3928;0.248947;179.751;0.533608;180
55.5134;0.274033;179.726;0.536994;180
55.623;0.297089;179.703;0.540107;180
55.7268;0.319183;179.681;0.54309;180
55.845;0.344116;179.656;0.546456;180
55.9563;0.367172;179.633;0.549568;180
56.0681;0.390015;179.61;0.552652;180
56.1802;0.412064;179.588;0.555629;180
56.292;0.433395;179.567;0.558508;180
56.4041;0.453659;179.546;0.561244;180
56.5161;0.472809;179.527;0.563829;180
56.6274;0.490662;179.509;0.566239;180
56.738;0.506821;179.493;0.568421;180
56.8489;0.521606;179.478;0.570417;180
56.9583;0.534485;179.466;0.572155;180
57.071;0.545929;179.454;0.5737;180
57.1833;0.555435;179.445;0.574984;180
57.2961;0.563126;179.437;0.576022;180
57.4058;0.568695;179.431;0.576774;180
57.5251;0.572662;179.427;0.577309;180
57.646;0.574402;179.426;0.577544;180
57.7566;0.573929;179.426;0.57748;180
57.8677;0.571823;179.428;0.577196;180
57.9785;0.567719;179.432;0.576642;180
58.0896;0.561981;179.438;0.575867;180
58.1997;0.554535;179.445;0.574862;180
58.3103;0.545532;179.454;0.573647;180
58.4214;0.535004;179.465;0.572226;180
58.5325;0.523285;179.477;0.570643;180
58.6436;0.51033;179.49;0.568895;180
58.7537;0.496277;179.504;0.566997;180
58.8633;0.481323;179.519;0.564979;180
58.9729;0.465607;179.534;0.562857;180
59.0837;0.44928;179.551;0.560653;180
59.1963;0.43219;179.568;0.558346;180
59.3079;0.414917;179.585;0.556014;180
59.4182;0.397629;179.602;0.55368;180
59.5278;0.380417;179.62;0.551356;180
59.6396;0.363022;179.637;0.549008;180
59.7498;0.346268;179.654;0.546746;180
59.8608;0.329651;179.67;0.544503;180
59.9702;0.313904;179.686;0.542377;180
60.0808;0.298767;179.701;0.540334;180
60.1919;0.284378;179.716;0.538391;180
60.3032;0.270767;179.729;0.536554;180
60.415;0.258072;179.742;0.53484;180
60.5256;0.246704;179.753;0.533305;180
60.636;0.236603;179.763;0.531941;180
60.7485;0.227585;179.772;0.530724;180
60.8599;0.220001;179.78;0.5297;180
60.9712;0.213974;179.786;0.528886;180
61.0854;0.209167;179.791;0.528238;180
61.2065;0.205551;179.794;0.527749;180
61.3181;0.203491;179.797;0.527471;180
61.4292;0.202942;179.797;0.527397;180
61.541;0.203598;179.796;0.527486;180
61.6514;0.205673;179.794;0.527766;180
61.7627;0.209;179.791;0.528215;180
