Airframe: C90B
Kp: 0.165
Ki: 0.17106
Kd: 0.212206
tau: 0.025
limMin: 0.25
limMax: 0.765
intLimMin: 0.25
intLimMax: 0.5
holdSpeed: 180
T: 0.05
setpoint: 180
t;error;speed;out;setpoint
0.163574;29.5231;150.477;0.765;180
0.273193;29.5568;150.443;0.765;180
0.38623;29.5914;150.409;0.765;180
0.494141;29.6244;150.376;0.765;180
0.601807;29.6555;150.344;0.765;180
0.704102;29.682;150.318;0.765;180
0.806396;29.7035;150.297;0.765;180
0.907227;29.7186;150.281;0.765;180
1.01929;29.7264;150.274;0.765;180
1.13281;29.7231;150.277;0.765;180
1.24438;29.7076;150.292;0.765;180
1.35693;29.6785;150.321;0.765;180
1.4646;29.6376;150.362;0.765;180
1.57178;29.584;150.416;0.765;180
1.68384;29.5143;150.486;0.765;180
1.79541;29.4307;150.569;0.765;180
1.90942;29.3321;150.668;0.765;180
2.01685;29.2266;150.773;0.765;180
2.12549;29.1091;150.891;0.765;180
2.22681;28.9897;151.01;0.765;180
2.3269;28.8634;151.137;0.765;180
2.43823;28.714;151.286;0.765;180
2.55078;28.5541;151.446;0.765;180
2.66333;28.3864;151.614;0.765;180
2.77637;28.2111;151.789;0.765;180
2.88989;28.0284;151.972;0.765;180
2.99829;27.8494;152.151;0.765;180
3.10913;27.6614;152.339;0.765;180
3.22412;27.4628;152.537;0.765;180
3.32544;27.2847;152.715;0.765;180
3.42578;27.1065;152.894;0.765;180
3.53369;26.9132;153.087;0.765;180
3.64575;26.7107;153.289;0.765;180
3.74829;26.5241;153.476;0.765;180
3.84937;26.34;153.66;0.765;180
3.9519;26.1526;153.847;0.765;180
4.06274;25.9501;154.05;0.765;180
4.17822;25.7392;154.261;0.765;180
4.28442;25.5456;154.454;0.765;180
4.39648;25.3426;154.657;0.765;180
4.50366;25.1489;154.851;0.765;180
4.61401;24.9504;155.05;0.765;180
4.72437;24.7532;155.247;0.765;180
4.83252;24.5609;155.439;0.765;180
4.93481;24.3809;155.619;0.765;180
5.04712;24.1846;155.815;0.765;180
5.15845;23.9919;156.008;0.765;180
5.26904;23.802;156.198;0.765;180
5.38037;23.6132;156.387;0.765;180
5.48608;23.4353;156.565;0.765;180
5.59912;23.2471;156.753;0.765;180
5.70557;23.0717;156.928;0.765;180
5.8064;22.9072;157.093;0.765;180
5.90747;22.7435;157.256;0.765;180
6.01807;22.5662;157.434;0.765;180
6.11865;22.4066;157.593;0.765;180
6.21973;22.2473;157.753;0.765;180
6.33154;22.0733;157.927;0.765;180
6.44141;21.9033;158.097;0.765;180
6.55054;21.7363;158.264;0.765;180
6.65454;21.5785;158.422;0.765;180
6.75537;21.4268;158.573;0.765;180
6.86328;21.2654;158.735;0.765;180
6.96436;21.1159;158.884;0.765;180
7.07617;20.9514;159.049;0.765;180
7.18628;20.7908;159.209;0.765;180
7.29443;20.6343;159.366;0.765;180
7.39478;20.4898;159.51;0.765;180
7.50415;20.3336;159.666;0.765;180
7.61011;20.1833;159.817;0.765;180
7.71021;20.0417;159.958;0.765;180
7.81055;19.9007;160.099;0.765;180
7.91064;19.7606;160.239;0.765;180
8.01733;19.612;160.388;0.765;180
8.12598;19.4613;160.539;0.765;180
8.22827;19.3198;160.68;0.765;180
8.33008;19.1795;160.821;0.765;180
8.43408;19.0365;160.964;0.765;180
8.54443;18.8855;161.114;0.765;180
8.64453;18.7487;161.251;0.765;180
8.75659;18.5958;161.404;0.765;180
8.86133;18.4534;161.547;0.765;180
8.96362;18.3147;161.685;0.765;180
9.07495;18.164;161.836;0.765;180
9.17578;18.0275;161.973;0.765;180
9.27588;17.8924;162.108;0.765;180
9.37622;17.757;162.243;0.765;180
9.48486;17.6109;162.389;0.765;180
9.58862;17.4711;162.529;0.765;180
9.68872;17.3367;162.663;0.765;180
9.83838;17.1354;162.865;0.765;180
9.93921;16.9997;163;0.765;180
10.0503;16.8504;163.15;0.765;180
10.1606;16.7017;163.298;0.765;180
10.2693;16.5549;163.445;0.765;180
10.3801;16.4054;163.595;0.765;180
10.4817;16.2677;163.732;0.765;180
10.5938;16.1154;163.885;0.765;180
10.7068;15.9613;164.039;0.765;180
10.8181;15.8089;164.191;0.765;180
10.9241;15.6638;164.336;0.765;180
11.0298;15.518;164.482;0.765;180
11.1365;15.3705;164.629;0.765;180
11.2366;15.2314;164.769;0.765;180
11.3369;15.0914;164.909;0.765;180
11.438;14.9498;165.05;0.765;180
11.5439;14.8007;165.199;0.765;180
11.655;14.6435;165.356;0.765;180
11.7683;14.4821;165.518;0.765;180
11.8809;14.3211;165.679;0.765;180
12.05;14.077;165.923;0.765;180
12.1624;13.9142;166.086;0.765;180
12.269;13.7583;166.242;0.765;180
12.3743;13.6041;166.396;0.765;180
12.4753;13.4551;166.545;0.765;180
12.5842;13.2935;166.707;0.765;180
12.6907;13.1348;166.865;0.765;180
12.791;12.9846;167.015;0.765;180
12.9417;12.7576;167.242;0.765;180
13.0544;12.5866;167.413;0.765;180
13.1663;12.4162;167.584;0.765;180
13.2791;12.2436;167.756;0.765;180
13.3845;12.0812;167.919;0.765;180
13.4919;11.9152;168.085;0.765;180
13.603;11.7427;168.257;0.765;180
13.717;11.5647;168.435;0.765;180
13.8184;11.4059;168.594;0.765;180
13.9197;11.2466;168.753;0.765;180
14.0264;11.078;168.922;0.765;180
14.1296;10.9143;169.086;0.765;180
14.2419;10.7356;169.264;0.765;180
14.3477;10.5666;169.433;0.765;180
14.4536;10.397;169.603;0.765;180
14.5637;10.22;169.78;0.765;180
14.6648;10.0566;169.943;0.765;180
14.7727;9.88187;170.118;0.765;180
14.884;9.70116;170.299;0.765;180
14.9905;9.52808;170.472;0.765;180
15.1013;9.34668;170.653;0.765;180
15.2117;9.16635;170.834;0.765;180
15.3237;8.98227;171.018;0.765;180
15.4363;8.7968;171.203;0.765;180
15.5486;8.61169;171.388;0.765;180
15.6575;8.43132;171.569;0.765;180
15.7698;8.24519;171.755;0.765;180
15.8806;8.06128;171.939;0.765;180
15.9932;7.87415;172.126;0.765;180
16.1077;7.68297;172.317;0.765;180
16.2141;7.50516;172.495;0.765;180
16.3196;7.32899;172.671;0.765;180
16.4326;7.13992;172.86;0.765;180
16.5405;6.95921;173.041;0.765;180
16.6899;6.70912;173.291;0.765;180
16.7903;6.54039;173.46;0.765;180
16.8914;6.37094;173.629;0.765;180
16.9929;6.20042;173.8;0.765;180
17.1108;6.00256;173.997;0.765;180
17.2217;5.81659;174.183;0.765;180
17.3337;5.62848;174.372;0.765;180
17.4473;5.43791;174.562;0.765;180
17.5583;5.25127;174.749;0.765;180
17.6692;5.06544;174.935;0.765;180
17.7803;4.87927;175.121;0.765;180
17.8928;4.69093;175.309;0.765;180
18.0054;4.5024;175.498;0.765;180
18.1167;4.31618;175.684;0.765;180
18.228;4.13057;175.869;0.765;180
18.3286;3.96254;176.037;0.765;180
18.4414;3.77493;176.225;0.726667;180
18.5469;3.59955;176.4;0.705711;180
18.6519;3.42523;176.575;0.673987;180
18.7627;3.24214;176.758;0.63968;180
18.863;3.07674;176.923;0.659782;180
18.9653;2.90988;177.09;0.617582;180
19.0786;2.72681;177.273;0.559169;180
19.1865;2.55537;177.445;0.539476;180
19.2866;2.39941;177.601;0.565687;180
19.3962;2.23325;177.767;0.517677;180
19.5029;2.07715;177.923;0.49392;180
19.613;1.92268;178.077;0.49142;180
19.7246;1.77376;178.226;0.483081;180
19.8325;1.63817;178.362;0.503416;180
19.9333;1.51958;178.48;0.506549;180
20.0386;1.40436;178.596;0.482882;180
20.1519;1.29099;178.709;0.473569;180
20.2559;1.19644;178.804;0.510635;180
20.3613;1.10988;178.89;0.494726;180
20.4663;1.03294;178.967;0.518256;180
20.5771;0.961487;179.039;0.512392;180
20.6885;0.89946;179.101;0.520524;180
20.8013;0.84584;179.154;0.529242;180
20.9138;0.800613;179.199;0.540894;180
21.0183;0.765732;179.234;0.551222;180
21.1301;0.735031;179.265;0.558376;180
21.2422;0.710144;179.29;0.566113;180
21.3525;0.690491;179.31;0.574427;180
21.4578;0.675507;179.324;0.5828;180
21.5684;0.663101;179.337;0.584574;180
21.6785;0.653183;179.347;0.587719;180
21.7891;0.644882;179.355;0.589312;180
21.9001;0.637222;179.363;0.589297;180
22.0601;0.626373;179.374;0.586092;180
22.1707;0.618362;179.382;0.58482;180
22.2808;0.609344;179.391;0.580616;180
22.3904;0.599121;179.401;0.57554;180
22.4968;0.587646;179.412;0.570311;180
22.6096;0.573837;179.426;0.564244;180
22.7112;0.559753;179.44;0.561484;180
22.813;0.54393;179.456;0.555626;180
22.9138;0.526825;179.473;0.549891;180
23.0208;0.507294;179.493;0.540558;180
23.1335;0.485229;179.515;0.532682;180
23.2454;0.46196;179.538;0.526415;180
23.3572;0.437759;179.562;0.519635;180
23.4646;0.413971;179.586;0.520962;180
23.5713;0.390076;179.61;0.515805;180
23.6721;0.367569;179.632;0.512664;180
23.7737;0.34523;179.655;0.509687;180
23.8757;0.323288;179.677;0.50729;180
23.9805;0.301437;179.699;0.506666;180
24.0923;0.27948;179.721;0.500313;180
24.2034;0.258972;179.741;0.500029;180
24.3062;0.241348;179.759;0.502889;180
24.416;0.224136;179.776;0.500801;180
24.5205;0.209335;179.791;0.502776;180
24.6318;0.195374;179.805;0.503628;180
24.7432;0.183334;179.817;0.505651;180
24.854;0.173279;179.827;0.508269;180
24.96;0.165237;179.835;0.511988;180
25.0723;0.15834;179.842;0.512538;180
25.1831;0.153275;179.847;0.51511;180
25.2849;0.150131;179.85;0.518942;180
25.3867;0.148056;179.852;0.520277;180
25.4929;0.146973;179.853;0.522496;180
25.6045;0.147018;179.853;0.524901;180
25.7053;0.147446;179.853;0.525677;180
25.8069;0.148636;179.851;0.527242;180
25.9075;0.150391;179.85;0.528892;180
26.0142;0.152634;179.847;0.530267;180
26.1252;0.155136;179.845;0.531139;180
26.2747;0.158783;179.841;0.531121;180
26.3899;0.161362;179.839;0.532066;180
26.4954;0.163513;179.836;0.531121;180
26.606;0.165573;179.834;0.531604;180
26.718;0.167084;179.833;0.530459;180
26.8184;0.16806;179.832;0.529546;180
26.9258;0.168793;179.831;0.529405;180
27.0305;0.169098;179.831;0.528193;180
27.1348;0.168854;179.831;0.526559;180
27.2847;0.167984;179.832;0.526163;180
27.3855;0.166962;179.833;0.524961;180
27.4866;0.165588;179.834;0.524344;180
27.6006;0.163635;179.836;0.52286;180
27.7009;0.161789;179.838;0.52281;180
27.8511;0.1586;179.841;0.521699;180
27.9524;0.156372;179.844;0.521137;180
28.0588;0.153931;179.846;0.52074;180
28.1597;0.151505;179.848;0.520268;180
28.2661;0.148972;179.851;0.519397;180
28.3735;0.14653;179.853;0.518554;180
28.4797;0.144211;179.856;0.519127;180
28.592;0.142075;179.858;0.518794;180
28.696;0.140091;179.86;0.518971;180
28.7966;0.138687;179.861;0.520294;180
28.906;0.137222;179.863;0.519314;180
29.0139;0.136246;179.864;0.52063;180
29.1243;0.135513;179.864;0.520805;180
29.2344;0.135345;179.865;0.521826;180
29.345;0.13559;179.864;0.523122;180
29.457;0.135956;179.864;0.52321;180
29.561;0.136749;179.863;0.524606;180
29.6716;0.137924;179.862;0.525861;180
29.7827;0.139511;179.86;0.527079;180
29.8943;0.141541;179.858;0.527573;180
30.0002;0.143967;179.856;0.529383;180
30.1006;0.146515;179.853;0.529999;180
30.2021;0.149139;179.851;0.529797;180
30.3032;0.152176;179.848;0.531585;180
30.4155;0.15564;179.844;0.533344;180
30.5232;0.159241;179.841;0.5342;180
30.6313;0.162872;179.837;0.53487;180
30.7427;0.166595;179.833;0.53556;180
30.854;0.170517;179.829;0.536485;180
30.9673;0.17453;179.825;0.537506;180
31.0791;0.178528;179.821;0.537883;180
31.1914;0.182663;179.817;0.539054;180
31.2979;0.186508;179.813;0.538618;180
31.3994;0.190048;179.81;0.538934;180
31.5;0.193665;179.806;0.539661;180
31.606;0.197617;179.802;0.540504;180
31.7178;0.201401;179.799;0.541725;180
31.8311;0.204987;179.795;0.541521;180
31.9414;0.208527;179.791;0.54192;180
32.0493;0.211716;179.788;0.541961;180
32.1604;0.214951;179.785;0.542506;180
32.2676;0.218018;179.782;0.541945;180
32.3701;0.220718;179.779;0.542119;180
32.4707;0.223343;179.777;0.542548;180
32.5771;0.225891;179.774;0.542143;180
32.7278;0.229691;179.77;0.543083;180
32.8289;0.232056;179.768;0.543531;180
32.9297;0.234512;179.765;0.544005;180
33.0361;0.23674;179.763;0.543848;180
33.1465;0.239304;179.761;0.544506;180
33.2476;0.241745;179.758;0.544811;180
33.3975;0.24527;179.755;0.54578;180
33.5071;0.248047;179.752;0.546112;180
33.6187;0.250885;179.749;0.547474;180
33.7317;0.253845;179.746;0.548617;180
33.8413;0.257019;179.743;0.549143;180
33.9548;0.260254;179.74;0.550138;180
34.0596;0.263474;179.737;0.550623;180
34.1602;0.266663;179.733;0.550477;180
34.2671;0.269958;179.73;0.551766;180
34.3743;0.27359;179.726;0.552398;180
34.4751;0.277145;179.723;0.553499;180
34.5886;0.281189;179.719;0.555116;180
34.6982;0.285339;179.715;0.555888;180
34.8042;0.289368;179.711;0.556038;180
34.915;0.293518;179.706;0.557295;180
35.0229;0.298035;179.702;0.559431;180
35.134;0.302551;179.697;0.55979;180
35.2439;0.307129;179.693;0.560505;180
35.3555;0.311844;179.688;0.561489;180
35.469;0.316711;179.683;0.562998;180
35.5823;0.321594;179.678;0.563426;180
35.6931;0.326187;179.674;0.563656;180
35.8054;0.331009;179.669;0.564616;180
35.9148;0.33577;179.664;0.565504;180
36.0217;0.340347;179.66;0.566438;180
36.1323;0.345123;179.655;0.566816;180
36.241;0.349854;179.65;0.568157;180
36.3425;0.354126;179.646;0.567241;180
36.51;0.361099;179.639;0.573834;180
36.6218;0.365662;179.634;0.570001;180
36.7227;0.369781;179.63;0.570394;180
36.8235;0.373856;179.626;0.57017;180
36.9258;0.377914;179.622;0.570583;180
37.0269;0.38205;179.618;0.571655;180
37.1323;0.386383;179.614;0.572568;180
37.2456;0.390854;179.609;0.573834;180
37.3503;0.394943;179.605;0.57319;180
37.4619;0.399323;179.601;0.575149;180
37.5674;0.403381;179.597;0.57535;180
37.6797;0.407669;179.592;0.576508;180
37.7812;0.411636;179.588;0.576466;180
37.8845;0.415512;179.584;0.576597;180
37.9849;0.419235;179.581;0.577011;180
38.0928;0.423386;179.577;0.579115;180
38.1931;0.427124;179.573;0.578247;180
38.2935;0.430862;179.569;0.579385;180
38.3987;0.434677;179.565;0.580107;180
38.5051;0.438538;179.561;0.580398;180
38.6155;0.442627;179.557;0.581594;180
38.7212;0.446594;179.553;0.581262;180
38.8213;0.450272;179.55;0.582323;180
38.9216;0.453766;179.546;0.582189;180
39.0234;0.457321;179.543;0.583285;180
39.1348;0.461304;179.539;0.584422;180
39.2463;0.465408;179.535;0.585936;180
39.3557;0.469315;179.531;0.584711;180
39.4575;0.472916;179.527;0.585547;180
39.5647;0.476608;179.523;0.586476;180
39.6753;0.480255;179.52;0.586774;180
39.7849;0.483856;179.516;0.587596;180
39.8962;0.487228;179.513;0.587865;180
40.0007;0.490417;179.51;0.587459;180
40.1101;0.493713;179.506;0.588456;180
40.2166;0.496841;179.503;0.588064;180
40.324;0.499664;179.5;0.588467;180
40.4304;0.502274;179.498;0.588782;180
40.5369;0.50502;179.495;0.589027;180
40.6492;0.507706;179.492;0.58947;180
40.76;0.510239;179.49;0.589391;180
40.8701;0.512817;179.487;0.590057;180
40.9822;0.51532;179.485;0.59028;180
41.083;0.517456;179.483;0.589592;180
41.1841;0.519653;179.48;0.590146;180
41.2842;0.521667;179.478;0.590218;180
41.385;0.523483;179.477;0.589752;180
41.4866;0.525452;179.475;0.590845;180
41.5933;0.527237;179.473;0.590926;180
41.7048;0.529297;179.471;0.591903;180
41.8162;0.531189;179.469;0.591779;180
41.9226;0.533066;179.467;0.592257;180
42.03;0.534592;179.465;0.59132;180
42.1401;0.535995;179.464;0.591053;180
42.2507;0.537445;179.463;0.591723;180
42.3516;0.538727;179.461;0.591737;180
42.4565;0.540314;179.46;0.592519;180
42.5635;0.541702;179.458;0.592185;180
42.6758;0.543167;179.457;0.592498;180
42.7869;0.544708;179.455;0.593;180
42.9001;0.545914;179.454;0.592381;180
43.0059;0.547089;179.453;0.592861;180
43.1182;0.548615;179.451;0.593873;180
43.2683;0.550049;179.45;0.592831;180
43.4185;0.551544;179.448;0.593077;180
43.5225;0.552658;179.447;0.593338;180
43.6335;0.553879;179.446;0.593979;180
43.7393;0.554718;179.445;0.593509;180
43.8406;0.555634;179.444;0.59375;180
43.9419;0.556488;179.444;0.593378;180
44.0435;0.557159;179.443;0.593486;180
44.1526;0.557953;179.442;0.593865;180
44.2639;0.558563;179.441;0.593224;180
44.3699;0.558868;179.441;0.593249;180
44.4717;0.559174;179.441;0.592531;180
44.6279;0.559662;179.44;0.59265;180
44.7407;0.559723;179.44;0.59237;180
44.8513;0.559708;179.44;0.59229;180
44.9617;0.559784;179.44;0.592614;180
45.0701;0.559723;179.44;0.592113;180
45.1826;0.559723;179.44;0.592124;180
45.2939;0.559479;179.441;0.591797;180
45.4048;0.559113;179.441;0.591943;180
45.5146;0.558868;179.441;0.591451;180
45.6272;0.558502;179.441;0.591376;180
45.7395;0.558197;179.442;0.591105;180
45.8501;0.557709;179.442;0.590753;180
45.9619;0.557281;179.443;0.590928;180
46.0698;0.556793;179.443;0.590381;180
46.1826;0.556183;179.444;0.590474;180
46.2927;0.555756;179.444;0.590436;180
46.4048;0.555191;179.445;0.590721;180
46.5137;0.554581;179.445;0.590455;180
46.6245;0.55397;179.446;0.590111;180
46.7256;0.55336;179.447;0.590009;180
46.8367;0.55246;179.448;0.589391;180
46.948;0.551453;179.449;0.588913;180
47.0635;0.550293;179.45;0.588002;180
47.1699;0.549072;179.451;0.587775;180
47.2805;0.547867;179.452;0.587636;180
47.3921;0.546478;179.454;0.587137;180
47.5068;0.545166;179.455;0.587001;180
47.6196;0.543762;179.456;0.586627;180
47.731;0.542175;179.458;0.586322;180
47.8435;0.540527;179.459;0.585348;180
47.9548;0.538879;179.461;0.585762;180
48.0601;0.537277;179.463;0.585046;180
48.1714;0.535629;179.464;0.584765;180
48.2793;0.533798;179.466;0.584442;180
48.3884;0.532074;179.468;0.584163;180
48.4988;0.530426;179.47;0.583904;180
48.6553;0.527832;179.472;0.582877;180
48.77;0.525879;179.474;0.582397;180
48.8833;0.523788;179.476;0.582189;180
48.9976;0.52153;179.478;0.581374;180
49.1089;0.519333;179.481;0.581027;180
49.2205;0.517197;179.483;0.580459;180
49.3328;0.514984;179.485;0.580534;180
49.4463;0.512772;179.487;0.580171;180
49.5588;0.510513;179.489;0.579444;180
49.6711;0.508347;179.492;0.579108;180
49.7825;0.506104;179.494;0.578717;180
49.8857;0.503922;179.496;0.578549;180
49.9934;0.501785;179.498;0.578373;180
50.1001;0.499588;179.5;0.577537;180
50.2104;0.497223;179.503;0.577112;180
50.322;0.49501;179.505;0.577182;180
50.4333;0.492813;179.507;0.576882;180
50.5376;0.490662;179.509;0.57655;180
50.6489;0.488495;179.512;0.576063;180
50.7566;0.486298;179.514;0.575833;180
50.8667;0.484222;179.516;0.575727;180
50.9768;0.482117;179.518;0.575141;180
51.084;0.480133;179.52;0.57484;180
51.1851;0.478241;179.522;0.575025;180
51.2915;0.476227;179.524;0.574191;180
51.4033;0.474228;179.526;0.57415;180
51.5051;0.47226;179.528;0.573777;180
51.6174;0.470169;179.53;0.573286;180
51.7283;0.468094;179.532;0.572832;180
51.8325;0.466202;179.534;0.572556;180
51.9443;0.464355;179.536;0.572388;180
52.0601;0.462158;179.538;0.571596;180
52.1641;0.460266;179.54;0.571929;180
52.2708;0.458313;179.542;0.571477;180
52.3721;0.456421;179.544;0.571166;180
52.4768;0.454529;179.545;0.570861;180
52.5884;0.452408;179.548;0.569781;180
52.6887;0.450623;179.549;0.570402;180
52.79;0.448547;179.551;0.569352;180
52.8953;0.446472;179.554;0.569264;180
53.0085;0.444183;179.556;0.568607;180
53.1145;0.441925;179.558;0.56801;180
53.2246;0.439636;179.56;0.567625;180
53.3357;0.437347;179.563;0.567483;180
53.4856;0.434174;179.566;0.566977;180
53.5911;0.432159;179.568;0.567149;180
53.7014;0.429794;179.57;0.566252;180
53.8018;0.42775;179.572;0.566304;180
53.9028;0.425705;179.574;0.565838;180
54.0039;0.423645;179.576;0.565816;180
54.1165;0.42157;179.578;0.564922;180
54.2263;0.419312;179.581;0.564751;180
54.3374;0.417023;179.583;0.56401;180
54.4443;0.415039;179.585;0.564531;180
54.553;0.412903;179.587;0.56372;180
54.6648;0.41066;179.589;0.562913;180
54.7747;0.408676;179.591;0.563161;180
54.8853;0.406693;179.593;0.563073;180
54.9858;0.404785;179.595;0.562648;180
55.095;0.402588;179.597;0.561308;180
55.2063;0.40036;179.6;0.561621;180
55.3105;0.398346;179.602;0.561841;180
55.4114;0.396576;179.603;0.561549;180
55.5137;0.394669;179.605;0.560732;180
55.6277;0.392593;179.607;0.560148;180
55.7363;0.390594;179.609;0.559736;180
55.8369;0.388641;179.611;0.560237;180
55.9478;0.386383;179.614;0.558378;180
56.0535;0.384583;179.615;0.560098;180
56.166;0.38266;179.617;0.559289;180
56.2734;0.380692;179.619;0.558922;180
56.3853;0.378754;179.621;0.558124;180
56.4988;0.376862;179.623;0.558055;180
56.6018;0.375092;179.625;0.558007;180
56.7029;0.373505;179.626;0.558261;180
56.8538;0.371048;179.629;0.557342;180
56.9553;0.369308;179.631;0.557309;180
57.0571;0.367599;179.632;0.557027;180
57.1711;0.365829;179.634;0.556955;180
57.2773;0.364151;179.636;0.557242;180
57.3838;0.362625;179.637;0.556482;180
57.4946;0.36113;179.639;0.556354;180
57.6008;0.35968;179.64;0.556012;180
57.7134;0.358383;179.642;0.556465;180
57.8242;0.356812;179.643;0.555569;180
57.9346;0.355225;179.645;0.555014;180
58.0366;0.353989;179.646;0.555566;180
58.1487;0.352585;179.647;0.555084;180
58.26;0.35112;179.649;0.554826;180
58.3694;0.34996;179.65;0.554927;180
58.5251;0.348007;179.652;0.554342;180
58.6309;0.347031;179.653;0.555187;180
58.7427;0.345932;179.654;0.554978;180
58.8503;0.345016;179.655;0.555112;180
58.9604;0.343918;179.656;0.554882;180
59.0737;0.343002;179.657;0.554537;180
59.1819;0.342209;179.658;0.554907;180
59.2834;0.341568;179.658;0.554807;180
59.4333;0.340591;179.659;0.554643;180
59.5359;0.339859;179.66;0.554523;180
59.6414;0.339294;179.661;0.554688;180
